Time(s),MC SW Overview - Actual Position(mm),MC SW Force Control - Measured Force(N),
0,-0.1629,1.2,
0.002,-0.1635,1.4,
0.004,-0.1635,1.2,
0.006,-0.1696,1.2,
0.008,-0.1806,1.1,
0.01,-0.1878,1.3,
0.012,-0.1927,1.1,
0.014,-0.2049,0.8,
0.016,-0.2355,0.2,
0.018,-0.2922,0,
0.02,-0.3856,0,
0.022,-0.5168,-0.1,
0.024,-0.6889,-0.3,
0.026,-0.902,-0.3,
0.028,-1.1522,-0.2,
0.03,-1.4446,-0.1,
0.032,-1.7754,-0.1,
0.034,-2.1416,0,
0.036,-2.5444,0,
0.038,-2.9717,0.2,
0.04,-3.4325,0.2,
0.042,-3.9177,0.3,
0.044,-4.4225,0.3,
0.046,-4.9498,0.4,
0.048,-5.4894,0.4,
0.05,-6.0558,0.3,
0.052,-6.6405,0.4,
0.054,-7.2453,0.4,
0.056,-7.8685,0.4,
0.058,-8.5228,0.3,
0.06,-9.2003,0.2,
0.062,-9.9077,0.2,
0.064,-10.6493,0.2,
0.066,-11.4226,0.2,
0.068,-12.2228,0.2,
0.07,-13.0522,0.2,
0.072,-13.8963,0.1,
0.074,-14.7545,0.2,
0.076,-15.6273,0,
0.078,-16.5196,0,
0.08,-17.4382,0,
0.082,-18.3861,0,
0.084,-19.3694,0,
0.086,-20.3941,0,
0.088,-21.4665,0,
0.09,-22.5938,0.1,
0.092,-23.7651,0.4,
0.094,-24.9455,0.6,
0.096,-26.1095,0.6,
0.098,-27.263,0.5,
0.1,-28.3849,0.4,
0.102,-29.5226,1.8,
0.104,-30.6389,1.7,
0.106,-31.7571,1.7,
0.108,-32.8905,1.8,
0.11,-34.0288,1.8,
0.112,-35.1439,2,
0.114,-36.2224,2.1,
0.116,-37.2643,2,
0.118,-38.2646,2,
0.12,-39.2363,1.9,
0.122,-40.1903,2,
0.124,-41.1217,2,
0.126,-42.039,2,
0.128,-42.9448,2.1,
0.13,-43.8268,2.2,
0.132,-44.6837,2.3,
0.134,-45.4985,2.1,
0.136,-46.2828,2.1,
0.138,-47.0403,2.3,
0.14,-47.755,2.2,
0.142,-48.4435,2.2,
0.144,-49.1118,2.1,
0.146,-49.7551,2.1,
0.148,-50.3777,2,
0.15,-50.9789,2,
0.152,-51.5587,2.1,
0.154,-52.1202,2,
0.156,-52.6567,2,
0.158,-53.1755,2.1,
0.16,-53.673,2,
0.162,-54.1411,2,
0.164,-54.5836,2,
0.166,-55.0053,2,
0.168,-55.4027,2,
0.17,-55.7726,2,
0.172,-56.1235,2,
0.174,-56.4513,2,
0.176,-56.7534,2,
0.178,-57.0329,2,
0.18,-57.2929,2,
0.182,-57.5279,2,
0.184,-57.7409,2,
0.186,-57.9295,2,
0.188,-58.0931,2.1,
0.19,-58.2353,2.1,
0.192,-58.3501,2.1,
0.194,-58.4422,2.1,
0.196,-58.5112,2.1,
0.198,-58.5539,2.1,
0.2,-58.5796,1.6,
0.202,-58.5912,0.9,
0.204,-58.615,0.9,
0.206,-58.6461,0.7,
0.208,-58.6907,0.6,
0.21,-58.7444,0.5,
0.212,-58.8115,0.4,
0.214,-58.8957,0.2,
0.216,-59.0032,0.2,
0.218,-59.1313,0.1,
0.22,-59.2839,0,
0.222,-59.4615,0,
0.224,-59.6715,0,
0.226,-59.901,0,
0.228,-60.1604,0,
0.23,-60.4448,0,
0.232,-60.764,0,
0.234,-61.1028,0.1,
0.236,-61.4659,0.2,
0.238,-61.8529,0.2,
0.24,-62.263,0.3,
0.242,-62.6952,0.2,
0.244,-63.1499,-1.5,
0.246,-63.6076,-1.6,
0.248,-64.0715,-0.8,
0.25,-64.5464,-0.8,
0.252,-65.0261,-2.1,
0.254,-65.518,-2.7,
0.256,-65.9862,-2.5,
0.258,-66.4519,-3.4,
0.26,-66.8987,-4.3,
0.262,-67.3265,-5.3,
0.264,-67.7348,-6.3,
0.266,-68.1206,-7.1,
0.268,-68.4911,-8.1,
0.27,-68.8402,-9,
0.272,-69.1734,-9.7,
0.274,-69.4811,-10.6,
0.276,-69.7636,-11.4,
0.278,-70.0285,-12.2,
0.28,-70.2733,-13.5,
0.282,-70.4949,-23.7,
0.284,-70.6554,-31.1,
0.286,-70.7555,-35.9,
0.288,-70.7903,-37.6,
0.29,-70.7793,-35.4,
0.292,-70.7591,-33.4,
0.294,-70.7463,-32.2,
0.296,-70.7433,-32,
0.298,-70.75,-32.9,
0.3,-70.7542,-33.6,
0.302,-70.7591,-34.1,
0.304,-70.7604,-34.3,
0.306,-70.7567,-34.2,
0.308,-70.7555,-34.2,
0.31,-70.75,-33.2,
0.312,-70.742,-33.2,
0.314,-70.7365,-32.4,
0.316,-70.7274,-31.7,
0.318,-70.7201,-30.8,
0.32,-70.6993,-29.3,
0.322,-70.6706,-27.1,
0.324,-70.6273,-24.3,
0.326,-70.5748,-21.2,
0.328,-70.5126,-18,
0.33,-70.4387,-15.2,
0.332,-70.3575,-12.4,
0.334,-70.2647,-9.9,
0.336,-70.1463,-10.4,
0.338,-69.9956,-9.5,
0.34,-69.8064,-9,
0.342,-69.5775,-8.2,
0.344,-69.3053,-7.6,
0.346,-68.9879,-6.9,
0.348,-68.6247,-6.2,
0.35,-68.2152,-5.2,
0.352,-67.7623,-4.3,
0.354,-67.2679,-3.5,
0.356,-66.732,-2.6,
0.358,-66.1504,-1.8,
0.36,-65.5724,-3.4,
0.362,-64.9754,-1.8,
0.364,-64.3968,-1.1,
0.366,-63.8335,-0.4,
0.368,-63.2994,0.2,
0.37,-62.7922,-0.2,
0.372,-62.3277,-0.2,
0.374,-61.9005,-0.3,
0.376,-61.5099,-0.2,
0.378,-61.1534,-0.2,
0.38,-60.8251,-0.1,
0.382,-60.537,0,
0.384,-60.2721,0,
0.386,-60.0377,0,
0.388,-59.8265,0.2,
0.39,-59.6397,0.2,
0.392,-59.475,0.3,
0.394,-59.3242,0.2,
0.396,-59.1917,0.2,
0.398,-59.0764,0,
0.4,-58.9824,0,
0.402,-58.9031,0,
0.404,-58.8396,0,
0.406,-58.7999,0,
0.408,-58.7779,0,
0.41,-58.7688,0,
0.412,-58.7761,0.4,
0.414,-58.7926,0.3,
0.416,-58.8139,0.2,
0.418,-58.8512,0.1,
0.42,-58.9018,0,
0.422,-58.9732,0,
0.424,-59.0654,0,
0.426,-59.1777,0,
0.428,-59.3144,-0.1,
0.43,-59.4719,0,
0.432,-59.6477,-0.1,
0.434,-59.854,-0.1,
0.436,-60.0896,-0.2,
0.438,-60.3514,-0.1,
0.44,-60.6419,-0.1,
0.442,-60.9587,-0.1,
0.444,-61.3036,0,
0.446,-61.6716,0,
0.448,-62.0696,0,
0.45,-62.4852,0,
0.452,-62.9137,0,
0.454,-63.3678,-0.9,
0.456,-63.8255,-2.7,
0.458,-64.2931,-0.7,
0.46,-64.771,-1.3,
0.462,-65.2574,-2.3,
0.464,-65.7274,-2.7,
0.466,-66.2053,-3,
0.468,-66.6649,-4.1,
0.47,-67.1031,-5.1,
0.472,-67.5188,-5.9,
0.474,-67.9137,-6.9,
0.476,-68.2915,-7.8,
0.478,-68.6522,-8.6,
0.48,-68.994,-9.5,
0.482,-69.3132,-10.4,
0.484,-69.6135,-11.1,
0.486,-69.8943,-11.9,
0.488,-70.1518,-12.8,
0.49,-70.385,-18,
0.492,-70.5827,-27.1,
0.494,-70.7182,-33.7,
0.496,-70.7896,-37.4,
0.498,-70.7994,-37.4,
0.5,-70.7799,-34.4,
0.502,-70.7591,-32.6,
0.504,-70.75,-31.8,
0.506,-70.7488,-32,
0.508,-70.7542,-33,
0.51,-70.7597,-33.8,
0.512,-70.7585,-34,
0.514,-70.7616,-34.2,
0.516,-70.7597,-34.3,
0.518,-70.764,-34.2,
0.52,-70.753,-33.6,
0.522,-70.7451,-32.9,
0.524,-70.7396,-32.1,
0.526,-70.728,-31.3,
0.528,-70.7158,-30.1,
0.53,-70.6896,-28.4,
0.532,-70.6542,-25.9,
0.534,-70.6078,-23,
0.536,-70.5504,-19.8,
0.538,-70.4875,-16.8,
0.54,-70.4112,-14.1,
0.542,-70.3215,-11.2,
0.544,-70.2202,-9.8,
0.546,-70.0926,-9.8,
0.548,-69.9266,-9.3,
0.55,-69.7252,-8.7,
0.552,-69.4743,-8.1,
0.554,-69.1795,-7.4,
0.556,-68.8384,-6.6,
0.558,-68.4532,-5.9,
0.56,-68.0229,-5,
0.562,-67.5511,-4,
0.564,-67.0335,-3.2,
0.566,-66.4739,-2.3,
0.568,-65.9007,-1.5,
0.57,-65.3008,-2.6,
0.572,-64.7063,-2,
0.574,-64.1313,-1.1,
0.576,-63.5832,-0.2,
0.578,-63.0602,0.2,
0.58,-62.5768,-0.3,
0.582,-62.1233,-0.2,
0.584,-61.7088,-0.4,
0.586,-61.3298,-0.3,
0.588,-60.9837,-0.2,
0.59,-60.6749,-0.1,
0.592,-60.3996,0,
0.594,-60.1531,0,
0.596,-59.9321,0,
0.598,-59.7405,0,
0.6,-59.5598,0,
0.602,-59.4054,0.1,
0.604,-59.2693,0.1,
0.606,-59.1454,0,
0.608,-59.041,0,
0.61,-58.9525,0,
0.612,-58.886,-0.1,
0.614,-58.8353,0,
0.616,-58.8011,0,
0.618,-58.7846,0,
0.62,-58.7859,0.1,
0.622,-58.7956,0.4,
0.624,-58.8103,0.2,
0.626,-58.8384,0.1,
0.628,-58.878,0,
0.63,-58.9354,0,
0.632,-59.0099,0,
0.634,-59.113,0,
0.636,-59.232,0,
0.638,-59.3742,-0.1,
0.64,-59.5451,-0.1,
0.642,-59.7405,-0.2,
0.644,-59.9577,-0.2,
0.646,-60.2062,-0.2,
0.648,-60.482,-0.2,
0.65,-60.7811,-0.1,
0.652,-61.1162,-0.1,
0.654,-61.4702,0,
0.656,-61.848,0,
0.658,-62.2502,0,
0.66,-62.672,0,
0.662,-63.1133,-1.3,
0.664,-63.5692,-0.7,
0.666,-64.0318,-0.9,
0.668,-64.4994,-0.8,
0.67,-64.9828,-2.3,
0.672,-65.4704,-2.6,
0.674,-65.9441,-2.3,
0.676,-66.4134,-3.6,
0.678,-66.8614,-4.4,
0.68,-67.2881,-5.5,
0.682,-67.697,-6.5,
0.684,-68.084,-7.5,
0.686,-68.4538,-8.3,
0.688,-68.806,-9.1,
0.69,-69.1393,-9.9,
0.692,-69.453,-10.8,
0.694,-69.7411,-11.6,
0.696,-70.0108,-12.3,
0.698,-70.2617,-13.4,
0.7,-70.4845,-22.2,
0.702,-70.6596,-30.4,
0.704,-70.7665,-36,
0.706,-70.8037,-38.2,
0.708,-70.7982,-35.8,
0.71,-70.7738,-33.6,
0.712,-70.7536,-32,
0.714,-70.7512,-31.7,
0.716,-70.7561,-32.3,
0.718,-70.7591,-33.4,
0.72,-70.7616,-33.9,
0.722,-70.7616,-34.2,
0.724,-70.7628,-34.3,
0.726,-70.7585,-34.3,
0.728,-70.7536,-33.8,
0.73,-70.75,-33.4,
0.732,-70.7427,-32.7,
0.734,-70.7353,-31.8,
0.736,-70.7262,-30.9,
0.738,-70.7079,-29.4,
0.74,-70.6798,-27.4,
0.742,-70.6395,-24.7,
0.744,-70.587,-21.7,
0.746,-70.5248,-18.5,
0.748,-70.4546,-15.5,
0.75,-70.374,-12.8,
0.752,-70.2812,-10.2,
0.754,-70.1701,-10.4,
0.756,-70.0243,-9.7,
0.758,-69.8424,-9,
0.76,-69.6184,-8.4,
0.762,-69.3468,-7.8,
0.764,-69.0355,-7.2,
0.766,-68.6754,-6.3,
0.768,-68.2726,-5.4,
0.77,-67.8246,-4.5,
0.772,-67.3308,-3.6,
0.774,-66.7973,-2.9,
0.776,-66.2199,-2,
0.778,-65.6395,-3.2,
0.78,-65.0444,-2.1,
0.782,-64.4597,-1.2,
0.784,-63.8951,-0.7,
0.786,-63.3531,0,
0.788,-62.8484,-0.2,
0.79,-62.3753,-0.2,
0.792,-61.945,-0.4,
0.794,-61.5434,-0.4,
0.796,-61.1821,-0.4,
0.798,-60.8531,-0.2,
0.8,-60.5577,-0.2,
0.802,-60.2953,0,
0.804,-60.0609,0,
0.806,-59.8509,0,
0.808,-59.6629,0.1,
0.81,-59.4969,0,
0.812,-59.348,0,
0.814,-59.218,0,
0.816,-59.1039,0,
0.818,-59.0044,0,
0.82,-58.9244,-0.1,
0.822,-58.8646,0,
0.824,-58.8255,-0.1,
0.826,-58.7987,-0.1,
0.828,-58.7907,0,
0.83,-58.7962,0.3,
0.832,-58.8097,0.3,
0.834,-58.828,0.2,
0.836,-58.8597,0,
0.838,-58.9037,0,
0.84,-58.9708,0,
0.842,-59.0544,0,
0.844,-59.16,-0.1,
0.846,-59.2888,-0.1,
0.848,-59.4408,-0.1,
0.85,-59.619,-0.2,
0.852,-59.8198,-0.3,
0.854,-60.0566,-0.3,
0.856,-60.3154,-0.2,
0.858,-60.6041,-0.2,
0.86,-60.9178,-0.1,
0.862,-61.2584,-0.1,
0.864,-61.6277,0,
0.866,-62.0189,0,
0.868,-62.4297,0,
0.87,-62.8661,0,
0.872,-63.3128,-0.9,
0.874,-63.7767,-3,
0.876,-64.2351,-0.7,
0.878,-64.7081,-1.1,
0.88,-65.2013,-2.5,
0.882,-65.6694,-3.1,
0.884,-66.1565,-2.9,
0.886,-66.6185,-4,
0.888,-67.0574,-5,
0.89,-67.4736,-5.9,
0.892,-67.8703,-6.9,
0.894,-68.2494,-7.8,
0.896,-68.6107,-8.7,
0.898,-68.9537,-9.6,
0.9,-69.276,-10.5,
0.902,-69.5775,-11.2,
0.904,-69.8583,-12,
0.906,-70.117,-12.8,
0.908,-70.3569,-15.8,
0.91,-70.5614,-25.9,
0.912,-70.7085,-33,
0.914,-70.7933,-37.6,
0.916,-70.8092,-38.1,
0.918,-70.7921,-35.3,
0.92,-70.7689,-33,
0.922,-70.75,-31.8,
0.924,-70.7488,-31.7,
0.926,-70.7567,-32.8,
0.928,-70.7634,-33.7,
0.93,-70.7652,-34,
0.932,-70.7665,-34.2,
0.934,-70.7585,-34.3,
0.936,-70.7683,-34.3,
0.938,-70.7561,-34.4,
0.94,-70.7469,-33.3,
0.942,-70.7402,-32.4,
0.944,-70.7378,-31.6,
0.946,-70.7225,-30.4,
0.948,-70.7005,-28.7,
0.95,-70.6676,-26.4,
0.952,-70.6175,-23.4,
0.954,-70.5632,-20.2,
0.956,-70.4973,-17.1,
0.958,-70.4222,-14.3,
0.96,-70.3392,-11.5,
0.962,-70.2361,-9.8,
0.964,-70.1103,-10,
0.966,-69.9516,-9.5,
0.968,-69.7514,-8.9,
0.97,-69.5067,-8.2,
0.972,-69.2186,-7.5,
0.974,-68.8854,-6.8,
0.976,-68.5063,-6,
0.978,-68.0815,-5,
0.98,-67.6128,-4.1,
0.982,-67.1043,-3.4,
0.984,-66.5501,-2.5,
0.986,-65.9526,-1.7,
0.988,-65.3825,-2.5,
0.99,-64.7832,-2,
0.992,-64.2082,-1.2,
0.994,-63.6559,-0.3,
0.996,-63.1316,0.1,
0.998,-62.6372,-0.4,
1,-62.1855,-0.2,
1.002,-61.7632,-0.4,
1.004,-61.3835,-0.3,
1.006,-61.0332,-0.3,
1.008,-60.7188,-0.2,
1.01,-60.4363,-0.1,
1.012,-60.1885,0,
1.014,-59.9626,0,
1.016,-59.7649,0,
1.018,-59.5842,0,
1.02,-59.4237,0,
1.022,-59.2815,0,
1.024,-59.16,0,
1.026,-59.052,0,
1.028,-58.9641,-0.1,
1.03,-58.8939,-0.1,
1.032,-58.8438,-0.1,
1.034,-58.8121,-0.1,
1.036,-58.795,0,
1.038,-58.7981,0.1,
1.04,-58.8048,0.3,
1.042,-58.82,0.2,
1.044,-58.8438,0.1,
1.046,-58.8792,0,
1.048,-58.9305,0,
1.05,-59.0025,0,
1.052,-59.0953,-0.1,
1.054,-59.2101,-0.2,
1.056,-59.3486,-0.2,
1.058,-59.5116,-0.2,
1.06,-59.7008,-0.2,
1.062,-59.9162,-0.3,
1.064,-60.1585,-0.3,
1.066,-60.4332,-0.2,
1.068,-60.7317,-0.2,
1.07,-61.0606,-0.1,
1.072,-61.4153,-0.1,
1.074,-61.7955,0,
1.076,-62.1922,0,
1.078,-62.6189,0,
1.08,-63.0608,-1,
1.082,-63.5106,-0.6,
1.084,-63.9757,-1.2,
1.086,-64.4438,-0.6,
1.088,-64.9266,-1.9,
1.09,-65.4125,-2.4,
1.092,-65.8891,-2,
1.094,-66.3597,-3.5,
1.096,-66.8126,-4.5,
1.098,-67.2398,-5.4,
1.1,-67.6476,-6.4,
1.102,-68.037,-7.3,
1.104,-68.4099,-8.2,
1.106,-68.7602,-9.1,
1.108,-69.099,-10,
1.11,-69.4096,-10.7,
1.112,-69.7014,-11.6,
1.114,-69.9687,-12.3,
1.116,-70.2208,-13.2,
1.118,-70.4521,-20.7,
1.12,-70.6365,-29.3,
1.122,-70.7567,-35.5,
1.124,-70.8086,-38.4,
1.126,-70.8055,-36.8,
1.128,-70.7811,-34.2,
1.13,-70.761,-32.2,
1.132,-70.7524,-31.8,
1.134,-70.7542,-32.2,
1.136,-70.7597,-33.2,
1.138,-70.7622,-33.9,
1.14,-70.7628,-34.2,
1.142,-70.764,-34.2,
1.144,-70.7597,-34.3,
1.146,-70.7524,-34.7,
1.148,-70.7555,-33.9,
1.15,-70.7469,-32.9,
1.152,-70.739,-32.1,
1.154,-70.7311,-31.1,
1.156,-70.7127,-29.8,
1.158,-70.6847,-27.8,
1.16,-70.6493,-25.1,
1.162,-70.5968,-22,
1.164,-70.5333,-18.9,
1.166,-70.4674,-15.8,
1.168,-70.3868,-13.1,
1.17,-70.2959,-10.5,
1.172,-70.1872,-10.4,
1.174,-70.0493,-9.7,
1.176,-69.8668,-9.1,
1.178,-69.6507,-8.5,
1.18,-69.3883,-7.9,
1.182,-69.0807,-7.3,
1.184,-68.7254,-6.4,
1.186,-68.3244,-5.6,
1.188,-67.8813,-4.7,
1.19,-67.3961,-3.8,
1.192,-66.8626,-2.9,
1.194,-66.2889,-2.1,
1.196,-65.7176,-2.2,
1.198,-65.114,-2.3,
1.2,-64.5268,-1.5,
1.202,-63.9623,-0.9,
1.204,-63.4148,-0.1,
1.206,-62.9051,-0.1,
1.208,-62.4315,-0.2,
1.21,-61.9914,-0.5,
1.212,-61.5886,-0.4,
1.214,-61.2212,-0.4,
1.216,-60.8916,-0.3,
1.218,-60.5901,-0.2,
1.22,-60.327,-0.1,
1.222,-60.0816,-0.1,
1.224,-59.8741,0,
1.226,-59.6837,0,
1.228,-59.5146,0,
1.23,-59.3602,0,
1.232,-59.2314,0,
1.234,-59.1112,0,
1.236,-59.0135,-0.1,
1.238,-58.9336,-0.1,
1.24,-58.8719,-0.1,
1.242,-58.8249,0,
1.244,-58.7969,-0.1,
1.246,-58.7914,0.1,
1.248,-58.7938,0.2,
1.25,-58.8042,0.2,
1.252,-58.8225,0.1,
1.254,-58.853,0,
1.256,-58.8988,0,
1.258,-58.9629,0,
1.26,-59.0453,-0.1,
1.262,-59.1515,-0.1,
1.264,-59.276,-0.1,
1.266,-59.4255,-0.2,
1.268,-59.5995,-0.3,
1.27,-59.7972,-0.3,
1.272,-60.0292,-0.3,
1.274,-60.2886,-0.2,
1.276,-60.5699,-0.2,
1.278,-60.8818,-0.2,
1.28,-61.2206,-0.2,
1.282,-61.5831,0,
1.284,-61.9707,-0.1,
1.286,-62.3814,0,
1.288,-62.8124,0,
1.29,-63.2567,-1,
1.292,-63.7138,-2.8,
1.294,-64.1783,-0.6,
1.296,-64.6544,-0.9,
1.298,-65.1366,-2.7,
1.3,-65.6035,-3,
1.302,-66.0924,-2.9,
1.304,-66.5569,-3.8,
1.306,-66.9988,-4.8,
1.308,-67.4205,-5.9,
1.31,-67.8203,-6.8,
1.312,-68.203,-7.7,
1.314,-68.5667,-8.6,
1.316,-68.9134,-9.6,
1.318,-69.24,-10.4,
1.32,-69.5427,-11.2,
1.322,-69.8271,-11.9,
1.324,-70.0865,-12.8,
1.326,-70.3355,-14.7,
1.328,-70.5431,-24.9,
1.33,-70.6987,-32.4,
1.332,-70.7884,-37.3,
1.334,-70.8122,-38.3,
1.336,-70.7958,-35.5,
1.338,-70.7726,-33,
1.34,-70.7536,-31.6,
1.342,-70.7506,-31.6,
1.344,-70.7567,-32.6,
1.346,-70.7628,-33.5,
1.348,-70.7616,-33.9,
1.35,-70.7671,-34.1,
1.352,-70.7604,-34.3,
1.354,-70.7555,-34.3,
1.356,-70.7524,-34.3,
1.358,-70.7518,-33.3,
1.36,-70.7408,-32.5,
1.362,-70.7347,-31.7,
1.364,-70.7231,-30.7,
1.366,-70.703,-29,
1.368,-70.6712,-26.7,
1.37,-70.6267,-23.8,
1.372,-70.5681,-20.7,
1.374,-70.5107,-17.5,
1.376,-70.4338,-14.6,
1.378,-70.3502,-11.8,
1.38,-70.2495,-9.7,
1.382,-70.1311,-10.2,
1.384,-69.9742,-9.7,
1.386,-69.7783,-9.1,
1.388,-69.5433,-8.3,
1.39,-69.2595,-7.6,
1.392,-68.9305,-7,
1.394,-68.5564,-6.2,
1.396,-68.1377,-5.2,
1.398,-67.6756,-4.3,
1.4,-67.169,-3.4,
1.402,-66.6209,-2.7,
1.404,-66.0326,-1.8,
1.406,-65.4515,-2.7,
1.408,-64.8583,-2,
1.41,-64.2766,-1.3,
1.412,-63.7199,-0.5,
1.414,-63.1896,0,
1.416,-62.6952,-0.4,
1.418,-62.2344,-0.3,
1.42,-61.815,-0.4,
1.422,-61.4305,-0.3,
1.424,-61.0759,-0.3,
1.426,-60.7579,-0.3,
1.428,-60.4765,-0.2,
1.43,-60.2178,-0.1,
1.432,-59.9907,0,
1.434,-59.7881,0,
1.436,-59.6092,0,
1.438,-59.4457,0,
1.44,-59.3004,0,
1.442,-59.1734,0,
1.444,-59.0654,0,
1.446,-58.9726,0,
1.448,-58.8982,-0.1,
1.45,-58.8451,-0.1,
1.452,-58.806,-0.1,
1.454,-58.7895,-0.1,
1.456,-58.7907,0,
1.458,-58.7944,0.2,
1.46,-58.8103,0.1,
1.462,-58.8341,0,
1.464,-58.8707,0,
1.466,-58.925,0,
1.468,-58.9964,0,
1.47,-59.0886,-0.1,
1.472,-59.2027,-0.1,
1.474,-59.3401,-0.2,
1.476,-59.5006,-0.2,
1.478,-59.688,-0.3,
1.48,-59.8967,-0.3,
1.482,-60.136,-0.3,
1.484,-60.4039,-0.3,
1.486,-60.7018,-0.2,
1.488,-61.0271,-0.1,
1.49,-61.3762,-0.1,
1.492,-61.7503,-0.1,
1.494,-62.1446,0,
1.496,-62.5664,0,
1.498,-63.001,-0.4,
1.5,-63.4514,-0.7,
1.502,-63.9165,-1.9,
1.504,-64.384,-0.5,
1.506,-64.8674,-1.8,
1.508,-65.3539,-2.5,
1.51,-65.8251,-2,
1.512,-66.303,-3.4,
1.514,-66.7564,-4.5,
1.516,-67.1861,-5.4,
1.518,-67.5957,-6.2,
1.52,-67.99,-7.2,
1.522,-68.3666,-8.2,
1.524,-68.7199,-9.1,
1.526,-69.0569,-10,
1.528,-69.3761,-10.7,
1.53,-69.6684,-11.5,
1.532,-69.94,-12.3,
1.534,-70.1921,-13.1,
1.536,-70.4247,-19.5,
1.538,-70.62,-28.3,
1.54,-70.7427,-34.9,
1.542,-70.8031,-38.2,
1.544,-70.808,-37.4,
1.546,-70.7872,-34.4,
1.548,-70.7646,-32.3,
1.55,-70.7518,-31.7,
1.552,-70.7518,-32,
1.554,-70.7591,-33.1,
1.556,-70.7665,-33.8,
1.558,-70.7634,-34.1,
1.56,-70.7604,-34.2,
1.562,-70.7646,-34.2,
1.564,-70.7555,-34.6,
1.566,-70.7549,-33.7,
1.568,-70.7469,-32.9,
1.57,-70.7414,-32.1,
1.572,-70.7304,-31.2,
1.574,-70.7176,-30,
1.576,-70.6889,-28,
1.578,-70.6517,-25.5,
1.58,-70.6011,-22.5,
1.582,-70.5461,-19.3,
1.584,-70.4796,-16.2,
1.586,-70.4002,-13.5,
1.588,-70.3111,-10.7,
1.59,-70.2031,-10.3,
1.592,-70.0682,-9.7,
1.594,-69.8955,-9.3,
1.596,-69.6831,-8.7,
1.598,-69.4219,-8,
1.6,-69.1191,-7.4,
1.602,-68.773,-6.6,
1.604,-68.3782,-5.9,
1.606,-67.9399,-4.8,
1.608,-67.4565,-4.1,
1.61,-66.9322,-3.2,
1.612,-66.3677,-2.3,
1.614,-65.8,-1.6,
1.616,-65.1909,-2.6,
1.618,-64.6013,-1.8,
1.62,-64.0349,-1,
1.622,-63.4886,-0.2,
1.624,-62.9717,0,
1.626,-62.4962,-0.2,
1.628,-62.0555,-0.4,
1.63,-61.6502,-0.4,
1.632,-61.2828,-0.4,
1.634,-60.9496,-0.3,
1.636,-60.6444,-0.2,
1.638,-60.3764,-0.1,
1.64,-60.1347,0,
1.642,-59.9126,0,
1.644,-59.7179,0,
1.646,-59.5439,0,
1.648,-59.3877,0,
1.65,-59.251,0,
1.652,-59.1289,0,
1.654,-59.0257,-0.1,
1.656,-58.9378,-0.1,
1.658,-58.8695,-0.2,
1.66,-58.8231,-0.1,
1.662,-58.7944,-0.1,
1.664,-58.7816,0,
1.666,-58.7853,0.3,
1.668,-58.7932,0.2,
1.67,-58.8121,0.1,
1.672,-58.8432,0,
1.674,-58.8872,0,
1.676,-58.9482,0,
1.678,-59.0288,-0.1,
1.68,-59.1332,-0.1,
1.682,-59.2571,-0.2,
1.684,-59.4072,-0.2,
1.686,-59.5775,-0.2,
1.688,-59.7716,-0.3,
1.69,-59.9999,-0.3,
1.692,-60.2538,-0.3,
1.694,-60.5351,-0.3,
1.696,-60.8403,-0.2,
1.698,-61.173,-0.2,
1.7,-61.5355,-0.1,
1.702,-61.9249,0,
1.704,-62.332,0,
1.706,-62.7538,0,
1.708,-63.1987,-1.1,
1.71,-63.6595,-1.9,
1.712,-64.1185,-0.7,
1.714,-64.5921,-0.8,
1.716,-65.0743,-2.6,
1.718,-65.5589,-2.8,
1.72,-66.0356,-2.8,
1.722,-66.5019,-3.8,
1.724,-66.9432,-4.7,
1.726,-67.3686,-5.7,
1.728,-67.769,-6.8,
1.73,-68.1542,-7.6,
1.732,-68.521,-8.6,
1.734,-68.8677,-9.5,
1.736,-69.1979,-10.3,
1.738,-69.5036,-11.1,
1.74,-69.7868,-12,
1.742,-70.053,-12.7,
1.744,-70.2989,-14,
1.746,-70.5156,-23.7,
1.748,-70.6816,-31.5,
1.75,-70.7781,-36.9,
1.752,-70.8147,-38.5,
1.754,-70.8019,-35.9,
1.756,-70.7774,-33.4,
1.758,-70.7579,-32,
1.76,-70.753,-31.7,
1.762,-70.7567,-32.4,
1.764,-70.7591,-33.5,
1.766,-70.7616,-34,
1.768,-70.7652,-34.2,
1.77,-70.7634,-34.2,
1.772,-70.7597,-34.3,
1.774,-70.7567,-33.5,
1.776,-70.7549,-33.3,
1.778,-70.7439,-32.6,
1.78,-70.7353,-31.8,
1.782,-70.7256,-30.8,
1.784,-70.7054,-29.2,
1.786,-70.6761,-27,
1.788,-70.6334,-24.2,
1.79,-70.5779,-21.1,
1.792,-70.5187,-17.9,
1.794,-70.4448,-14.9,
1.796,-70.363,-12.2,
1.798,-70.2666,-9.8,
1.8,-70.1488,-10.5,
1.802,-70.0011,-9.7,
1.804,-69.807,-9.1,
1.806,-69.5757,-8.4,
1.808,-69.3022,-7.7,
1.81,-68.9769,-7.1,
1.812,-68.6052,-6.3,
1.814,-68.192,-5.3,
1.816,-67.7367,-4.5,
1.818,-67.2362,-3.6,
1.82,-66.6942,-2.8,
1.822,-66.1101,-1.9,
1.824,-65.5303,-3.4,
1.826,-64.9352,-1.9,
1.828,-64.3511,-1.4,
1.83,-63.7938,-0.5,
1.832,-63.2634,0,
1.834,-62.7611,-0.3,
1.836,-62.2972,-0.3,
1.838,-61.8663,-0.5,
1.84,-61.4757,-0.4,
1.842,-61.1174,-0.4,
1.844,-60.797,-0.3,
1.846,-60.5064,-0.2,
1.848,-60.2501,-0.1,
1.85,-60.0188,0,
1.852,-59.8125,0,
1.854,-59.6318,0,
1.856,-59.4682,0,
1.858,-59.3236,0,
1.86,-59.1948,0,
1.862,-59.0837,0,
1.864,-58.9946,-0.2,
1.866,-58.9195,-0.1,
1.868,-58.8628,-0.1,
1.87,-58.8274,-0.1,
1.872,-58.8097,-0.1,
1.874,-58.8072,0,
1.876,-58.8133,0.2,
1.878,-58.8237,0.2,
1.88,-58.8445,0.1,
1.882,-58.8719,0,
1.884,-58.9214,0,
1.886,-58.9867,-0.1,
1.888,-59.0721,-0.2,
1.89,-59.1814,-0.2,
1.892,-59.3132,-0.3,
1.894,-59.4701,-0.3,
1.896,-59.6471,-0.3,
1.898,-59.8534,-0.3,
1.9,-60.092,-0.4,
1.902,-60.3581,-0.3,
1.904,-60.6542,-0.2,
1.906,-60.9782,-0.3,
1.908,-61.3255,-0.1,
1.91,-61.6954,-0.1,
1.912,-62.0928,-0.1,
1.914,-62.5108,0,
1.916,-62.9472,-0.2,
1.918,-63.3934,-0.8,
1.92,-63.8603,-2.7,
1.922,-64.3254,-0.5,
1.924,-64.8082,-1.5,
1.926,-65.2965,-2.5,
1.928,-65.7695,-2.5,
1.93,-66.248,-3.3,
1.932,-66.7021,-4.4,
1.934,-67.1397,-5.3,
1.936,-67.5536,-6.2,
1.938,-67.9454,-7.1,
1.94,-68.3232,-8.1,
1.942,-68.6784,-9,
1.944,-69.0172,-9.8,
1.946,-69.334,-10.7,
1.948,-69.6288,-11.4,
1.95,-69.9046,-12.3,
1.952,-70.1598,-13.1,
1.954,-70.3948,-17.8,
1.956,-70.5943,-27.2,
1.958,-70.7298,-34,
1.96,-70.8006,-38.1,
1.962,-70.8116,-37.9,
1.964,-70.789,-34.8,
1.966,-70.7695,-32.6,
1.968,-70.7573,-31.7,
1.97,-70.7561,-31.9,
1.972,-70.7573,-33,
