Time(s),MC SW Overview - Actual Position(mm),MC SW Force Control - Measured Force(N),MC SW Overview - Actual Velocity(m/s),
0,-0.1629,1.1,-0.003733,
0.002,-0.1629,1.1,0.000533,
0.004,-0.1623,1.1,0,
0.006,-0.1635,1.2,-0.001066,
0.008,-0.1617,1.1,0.0016,
0.01,-0.1642,1.1,0,
0.012,-0.1672,1.2,-0.002666,
0.014,-0.1678,1.2,-0.002133,
0.016,-0.169,1.1,-0.002133,
0.018,-0.169,1.1,-0.002133,
0.02,-0.1751,1.1,-0.002666,
0.022,-0.1794,1.1,-0.001066,
0.024,-0.1861,1.2,-0.0032,
0.026,-0.1903,1.2,-0.0048,
0.028,-0.1885,1.1,-0.0032,
0.03,-0.1982,0.9,-0.003733,
0.032,-0.2147,0.5,-0.010311,
0.034,-0.2513,0.3,-0.021155,
0.036,-0.3154,0.3,-0.036888,
0.038,-0.4027,0.3,-0.047733,
0.04,-0.5107,0.2,-0.055288,
0.042,-0.642,0.3,-0.067288,
0.044,-0.7921,0.4,-0.075377,
0.046,-0.9618,0.5,-0.086844,
0.048,-1.1431,0.6,-0.092266,
0.05,-1.3414,0.6,-0.099822,
0.052,-1.5471,0.7,-0.104711,
0.054,-1.7638,0.9,-0.111199,
0.056,-1.9908,1,-0.112799,
0.058,-2.2203,1,-0.113866,
0.06,-2.4571,1.1,-0.118222,
0.062,-2.6995,1.1,-0.120444,
0.064,-2.9344,1.1,-0.119822,
0.066,-3.1798,1.1,-0.122044,
0.068,-3.4258,1.1,-0.122666,
0.07,-3.6699,1.1,-0.122044,
0.072,-3.9177,1,-0.121511,
0.074,-4.1722,1,-0.125333,
0.076,-4.4274,0.9,-0.126399,
0.078,-4.6904,0.9,-0.131822,
0.08,-4.9651,0.8,-0.136711,
0.082,-5.2428,0.8,-0.142666,
0.084,-5.5278,0.7,-0.1432,
0.086,-5.8293,0.8,-0.151911,
0.088,-6.14,0.7,-0.158933,
0.09,-6.4623,0.7,-0.162755,
0.092,-6.7943,0.7,-0.170933,
0.094,-7.1373,0.7,-0.172533,
0.096,-7.4877,0.7,-0.178488,
0.098,-7.8533,0.7,-0.1856,
0.1,-8.2311,0.7,-0.192622,
0.102,-8.6162,0.7,-0.196355,
0.104,-9.0178,0.7,-0.204,
0.106,-9.431,0.7,-0.207733,
0.108,-9.8577,0.7,-0.214844,
0.11,-10.2971,0.7,-0.221866,
0.112,-10.75,0.7,-0.230577,
0.114,-11.2108,0.8,-0.233244,
0.116,-11.6808,0.9,-0.236533,
0.118,-12.166,0.8,-0.240888,
0.12,-12.6567,0.9,-0.240888,
0.122,-13.156,0.9,-0.251733,
0.124,-13.654,0.8,-0.250577,
0.126,-14.1527,0.9,-0.249599,
0.128,-14.6538,0.8,-0.248977,
0.13,-15.1622,0.7,-0.253866,
0.132,-15.6725,0.7,-0.256088,
0.134,-16.1888,0.6,-0.259288,
0.136,-16.7168,0.7,-0.264266,
0.138,-17.249,0.6,-0.264711,
0.14,-17.7953,0.6,-0.273422,
0.142,-18.3531,0.5,-0.281511,
0.144,-18.9183,0.7,-0.2832,
0.146,-19.4976,0.7,-0.287555,
0.148,-20.0902,0.6,-0.297866,
0.15,-20.6975,0.8,-0.304888,
0.152,-21.3109,0.8,-0.309777,
0.154,-21.9493,0.9,-0.3184,
0.156,-22.6,0.9,-0.3272,
0.158,-23.2561,1,-0.329866,
0.16,-23.9208,1.1,-0.329866,
0.162,-24.5769,1.1,-0.326577,
0.164,-25.2281,1,-0.324355,
0.166,-25.8672,0.9,-0.320622,
0.168,-26.5019,0.9,-0.314666,
0.17,-27.1343,0.9,-0.314666,
0.172,-27.7605,0.7,-0.314666,
0.174,-28.3898,0.6,-0.316888,
0.176,-29.0251,0.6,-0.317333,
0.178,-29.6703,0.4,-0.323911,
0.18,-30.3295,0.4,-0.331022,
0.182,-31.007,0.3,-0.341866,
0.184,-31.7052,0.4,-0.354311,
0.186,-32.4315,0.4,-0.365688,
0.188,-33.1798,0.4,-0.376,
0.19,-33.9562,0.4,-0.387911,
0.192,-34.7411,0.5,-0.3944,
0.194,-35.5339,0.5,-0.398755,
0.196,-36.3329,0.5,-0.399822,
0.198,-37.1343,0.6,-0.400444,
0.2,-37.9375,0.6,-0.402044,
0.202,-38.7468,0.6,-0.406844,
0.204,-39.5671,0.6,-0.412799,
0.206,-40.3966,0.5,-0.415555,
0.208,-41.2432,0.6,-0.424799,
0.21,-42.105,0.7,-0.432444,
0.212,-42.9851,0.8,-0.441599,
0.214,-43.8768,0.8,-0.445422,
0.216,-44.7582,0.8,-0.442755,
0.218,-45.6468,0.9,-0.438311,
0.22,-46.5306,1,-0.441066,
0.222,-47.4047,0.9,-0.437333,
0.224,-48.2842,0.8,-0.440533,
0.226,-49.1716,0.8,-0.443199,
0.228,-50.0652,0.9,-0.449244,
0.23,-50.9777,0.9,-0.458488,
0.232,-51.9023,0.7,-0.464355,
0.234,-52.838,0.8,-0.470399,
0.236,-53.7889,0.7,-0.476888,
0.238,-54.7325,0.7,-0.470844,
0.24,-55.6829,0.7,-0.471466,
0.242,-56.6301,0.6,-0.474666,
0.244,-57.581,0.5,-0.475733,
0.246,-58.5485,0.5,-0.482311,
0.248,-59.5403,0.5,-0.497511,
0.25,-60.5516,0.7,-0.507822,
0.252,-61.5825,0.6,-0.517599,
0.254,-62.6287,0.6,-0.528444,
0.256,-63.6736,-25.2,-0.515999,
0.258,-64.6733,0,-0.496888,
0.26,-65.5211,0,-0.369955,
0.262,-66.3646,0.5,-0.397155,
0.264,-67.0366,1.4,-0.312444,
0.266,-67.5194,0.8,-0.220799,
0.268,-67.8166,-0.6,-0.129066,
0.27,-67.9491,0.2,-0.051022,
0.272,-67.9418,-1.9,0.014577,
0.274,-67.8252,-1,0.070488,
0.276,-67.6299,-1.8,0.104711,
0.278,-67.3766,-3.1,0.130222,
0.28,-67.094,-3.4,0.145422,
0.282,-66.7925,-4,0.149155,
0.284,-66.4928,-4.7,0.147555,
0.286,-66.2194,-5,0.134488,
0.288,-65.9795,-5.4,0.116622,
0.29,-65.783,-5.6,0.091111,
0.292,-65.6414,-5.8,0.066133,
0.294,-65.5608,-5.8,0.033066,
0.296,-65.5449,-5.7,0.002755,
0.298,-65.5809,-5.4,-0.023288,
0.3,-65.6749,-5.5,-0.053155,
0.302,-65.8055,-5.7,-0.072088,
0.304,-65.9746,-5.6,-0.087911,
0.306,-66.1797,-5.9,-0.105777,
0.308,-66.4238,-6,-0.126399,
0.31,-66.6973,-6.2,-0.140533,
0.312,-67.0024,-6.4,-0.152444,
0.314,-67.3204,-6.8,-0.161066,
0.316,-67.6384,-7,-0.159466,
0.318,-67.9637,-7.4,-0.162222,
0.32,-68.2836,-7.9,-0.161155,
0.322,-68.5918,-8.4,-0.154044,
0.324,-68.8866,-9.1,-0.145422,
0.326,-69.1655,-9.8,-0.136711,
0.328,-69.4243,-10.5,-0.127466,
0.33,-69.6758,-11.3,-0.120977,
0.332,-69.9156,-12.3,-0.119822,
0.334,-70.1409,-15.2,-0.110133,
0.336,-70.3508,-22.7,-0.099288,
0.338,-70.4692,-27.9,-0.030311,
0.34,-70.5467,-30.4,-0.024888,
0.342,-70.5303,-28.1,0.017866,
0.344,-70.4497,-23,0.048266,
0.346,-70.3478,-18.4,0.053155,
0.348,-70.2477,-15.6,0.046666,
0.35,-70.1531,-13.6,0.046133,
0.352,-70.0731,-11.9,0.039111,
0.354,-70.0121,-12,0.025511,
0.356,-69.9541,-12,0.024444,
0.358,-69.8998,-11.7,0.024355,
0.36,-69.8509,-11.4,0.021244,
0.362,-69.8021,-11.1,0.023377,
0.364,-69.7508,-10.9,0.024444,
0.366,-69.691,-10.6,0.028799,
0.368,-69.6294,-10.3,0.030933,
0.37,-69.5543,-9.9,0.037422,
0.372,-69.4676,-9.6,0.042933,
0.374,-69.3785,-9.3,0.046666,
0.376,-69.2784,-9.1,0.051555,
0.378,-69.1716,-8.8,0.051555,
0.38,-69.0471,-8.6,0.061333,
0.382,-68.9147,-8.4,0.070488,
0.384,-68.7621,-8.1,0.075911,
0.386,-68.5961,-7.9,0.085688,
0.388,-68.4178,-7.5,0.088977,
0.39,-68.2237,-7.2,0.096088,
0.392,-68.0168,-6.8,0.104177,
0.394,-67.8014,-6.5,0.112266,
0.396,-67.5768,-6.1,0.113333,
0.398,-67.3473,-5.7,0.115555,
0.4,-67.1092,-5.2,0.118311,
0.402,-66.87,-4.7,0.118844,
0.404,-66.6228,-4.2,0.122044,
0.406,-66.3701,-3.7,0.126399,
0.408,-66.1186,-3.2,0.124266,
0.41,-65.858,-2.6,0.130755,
0.412,-65.5956,-2.2,0.130755,
0.414,-65.3282,-1.7,0.134577,
0.416,-65.1146,-3.6,0.082488,
0.418,-64.9034,-3.6,0.098755,
0.42,-64.7515,-3.6,0.066666,
0.422,-64.6642,-3.5,0.033066,
0.424,-64.6349,-3.1,0.007555,
0.426,-64.6532,-2.5,-0.013066,
0.428,-64.702,-2.7,-0.030399,
0.43,-64.7801,-2.5,-0.043911,
0.432,-64.8723,-2.4,-0.0456,
0.434,-64.9828,-2.4,-0.056444,
0.436,-65.1085,-2.6,-0.061866,
0.438,-65.2422,-2.7,-0.069422,
0.44,-65.382,-2.8,-0.0744,
0.442,-65.5321,-3,-0.074844,
0.444,-65.6957,-3.1,-0.082488,
0.446,-65.8617,-3.3,-0.084622,
0.448,-66.0332,-3.6,-0.086222,
0.45,-66.2053,-3.9,-0.084622,
0.452,-66.3683,-4.2,-0.079733,
0.454,-66.5312,-4.5,-0.079733,
0.456,-66.6814,-4.9,-0.073777,
0.458,-66.8236,-5.2,-0.072177,
0.46,-66.9548,-5.7,-0.066666,
0.462,-67.0818,-6.2,-0.061333,
0.464,-67.2118,-6.6,-0.062933,
0.466,-67.3387,-7.2,-0.064533,
0.468,-67.4736,-7.7,-0.067822,
0.47,-67.6189,-8.2,-0.074844,
0.472,-67.7733,-8.6,-0.0792,
0.474,-67.9448,-9,-0.086222,
0.476,-68.1334,-9.4,-0.096,
0.478,-68.3367,-9.9,-0.102577,
0.48,-68.5576,-10.4,-0.112799,
0.482,-68.7938,-10.9,-0.119911,
0.484,-69.0398,-11.3,-0.122666,
0.486,-69.2992,-11.9,-0.131822,
0.488,-69.5665,-12.4,-0.136177,
0.49,-69.8406,-13.1,-0.137244,
0.492,-70.1158,-14,-0.137777,
0.494,-70.3404,-20.5,-0.107911,
0.496,-70.5187,-28.5,-0.082488,
0.498,-70.5895,-31.4,-0.023911,
0.5,-70.5614,-28.2,0.021155,
0.502,-70.4766,-23,0.049866,
0.504,-70.3673,-18.5,0.055377,
0.506,-70.2568,-15.4,0.055911,
0.508,-70.1561,-13.3,0.048888,
0.51,-70.0621,-11.8,0.042844,
0.512,-69.9816,-11.8,0.038488,
0.514,-69.9077,-11.8,0.035288,
0.516,-69.8363,-11.5,0.035288,
0.518,-69.7643,-11.3,0.036888,
0.52,-69.691,-11.1,0.039644,
0.522,-69.6141,-10.7,0.044533,
0.524,-69.5342,-10.5,0.043377,
0.526,-69.4432,-10.3,0.0456,
0.528,-69.3431,-10.1,0.049422,
0.53,-69.2406,-9.7,0.051022,
0.532,-69.1381,-9.4,0.0488,
0.534,-69.0337,-9,0.051022,
0.536,-68.9208,-8.8,0.058044,
0.538,-68.8072,-8.4,0.059733,
0.54,-68.6791,-8.1,0.062933,
0.542,-68.5387,-7.8,0.072177,
0.544,-68.3831,-7.4,0.077511,
0.546,-68.2158,-7.1,0.084622,
0.548,-68.0358,-6.6,0.090577,
0.55,-67.8411,-6.3,0.098133,
0.552,-67.628,-5.9,0.107999,
0.554,-67.4022,-5.6,0.115555,
0.556,-67.1648,-5.1,0.119911,
0.558,-66.9115,-4.7,0.125866,
0.56,-66.6527,-4.2,0.130755,
0.562,-66.386,-3.8,0.135111,
0.564,-66.1186,-3.3,0.132444,
0.566,-65.8458,-2.8,0.137777,
0.568,-65.5773,-2.2,0.133955,
0.57,-65.2965,-1.7,0.137777,
0.572,-65.0695,-4.1,0.123111,
0.574,-64.8607,-3.7,0.100888,
0.576,-64.7014,-3.8,0.076,
0.578,-64.6099,-3.7,0.039022,
0.58,-64.5793,-3.3,0.009244,
0.582,-64.6001,-2.7,-0.013066,
0.584,-64.6495,-2.8,-0.029244,
0.586,-64.7331,-2.7,-0.048266,
0.588,-64.8424,-2.5,-0.059111,
0.59,-64.9669,-2.6,-0.066755,
0.592,-65.1036,-2.6,-0.068888,
0.594,-65.2532,-2.6,-0.076,
0.596,-65.41,-2.9,-0.0792,
0.598,-65.5748,-3,-0.083555,
0.6,-65.7433,-3.2,-0.083555,
0.602,-65.916,-3.4,-0.083555,
0.604,-66.0869,-3.7,-0.084088,
0.606,-66.259,-4,-0.084622,
0.608,-66.422,-4.3,-0.080888,
0.61,-66.5746,-4.7,-0.075466,
0.612,-66.7229,-5.2,-0.074311,
0.614,-66.8651,-5.5,-0.071022,
0.616,-66.9982,-5.9,-0.064622,
0.618,-67.1349,-6.4,-0.067288,
0.62,-67.2649,-7,-0.068355,
0.622,-67.3992,-7.4,-0.065688,
0.624,-67.5414,-7.9,-0.074311,
0.626,-67.6903,-8.4,-0.078133,
0.628,-67.849,-8.8,-0.0808,
0.63,-68.0193,-9.2,-0.086311,
0.632,-68.2042,-9.6,-0.094933,
0.634,-68.4014,-10.1,-0.099288,
0.636,-68.6089,-10.5,-0.107466,
0.638,-68.8323,-11,-0.111822,
0.64,-69.0709,-11.5,-0.122044,
0.642,-69.3144,-12.1,-0.123644,
0.644,-69.5751,-12.7,-0.135111,
0.646,-69.843,-13.4,-0.136177,
0.648,-70.1207,-14.3,-0.138311,
0.65,-70.3356,-21.1,-0.121599,
0.652,-70.5089,-28.6,-0.076533,
0.654,-70.5754,-31,-0.021688,
0.656,-70.5498,-28,0.020088,
0.658,-70.4662,-22.8,0.046133,
0.66,-70.36,-18.4,0.054222,
0.662,-70.2489,-15.5,0.057511,
0.664,-70.1488,-13.3,0.0488,
0.666,-70.0566,-11.9,0.043466,
0.668,-69.9748,-11.8,0.041777,
0.67,-69.9034,-11.9,0.035822,
0.672,-69.8332,-11.6,0.035288,
0.674,-69.7655,-11.4,0.032533,
0.676,-69.6868,-11.1,0.039555,
0.678,-69.6141,-10.8,0.036888,
0.68,-69.5268,-10.5,0.041777,
0.682,-69.4329,-10.3,0.047733,
0.684,-69.3315,-10.1,0.0472,
0.686,-69.2278,-9.6,0.052622,
0.688,-69.1301,-9.3,0.052088,
0.69,-69.0251,-8.9,0.055911,
0.692,-68.9159,-8.7,0.056444,
0.694,-68.7956,-8.4,0.060799,
0.696,-68.6626,-8.1,0.068355,
0.698,-68.5137,-7.8,0.075911,
0.7,-68.3538,-7.5,0.080266,
0.702,-68.1792,-7.1,0.088444,
0.704,-67.9894,-6.8,0.095466,
0.706,-67.7886,-6.3,0.100355,
0.708,-67.5713,-5.9,0.110666,
0.71,-67.3363,-5.5,0.118844,
0.712,-67.0964,-5.2,0.122133,
0.714,-66.845,-4.7,0.126933,
0.716,-66.585,-4.2,0.130666,
0.718,-66.3237,-3.7,0.129688,
0.72,-66.0521,-3.2,0.136177,
0.722,-65.7817,-2.7,0.134577,
0.724,-65.5052,-2.2,0.137333,
0.726,-65.222,-1.7,0.142222,
0.728,-65.0127,-3.7,0.126399,
0.73,-64.8088,-3.8,0.095555,
0.732,-64.6642,-3.6,0.068888,
0.734,-64.594,-3.6,0.030933,
0.736,-64.5775,-3.2,0,
0.738,-64.6123,-2.8,-0.022755,
0.74,-64.6727,-2.7,-0.031999,
0.742,-64.7637,-2.7,-0.046666,
0.744,-64.8784,-2.5,-0.059111,
0.746,-65.0102,-2.6,-0.068888,
0.748,-65.1494,-2.7,-0.074311,
0.75,-65.2989,-2.8,-0.078666,
0.752,-65.4576,-2.9,-0.081866,
0.754,-65.6249,-3.2,-0.086311,
0.756,-65.7988,-3.3,-0.088444,
0.758,-65.9746,-3.5,-0.089511,
0.76,-66.1467,-3.9,-0.084622,
0.762,-66.3176,-4.1,-0.084622,
0.764,-66.4788,-4.4,-0.078666,
0.766,-66.6332,-4.8,-0.076,
0.768,-66.7729,-5.2,-0.071555,
0.77,-66.9048,-5.6,-0.063466,
0.772,-67.0342,-6.1,-0.065155,
0.774,-67.1544,-6.6,-0.059644,
0.776,-67.2765,-7.1,-0.060799,
0.778,-67.4053,-7.6,-0.063466,
0.78,-67.5389,-8,-0.067822,
0.782,-67.6836,-8.5,-0.076533,
0.784,-67.8429,-8.9,-0.082488,
0.786,-68.015,-9.3,-0.087911,
0.788,-68.203,-9.7,-0.096533,
0.79,-68.4081,-10.3,-0.104711,
0.792,-68.6217,-10.7,-0.106311,
0.794,-68.8573,-11.2,-0.118844,
0.796,-69.1002,-11.7,-0.123644,
0.798,-69.3602,-12.3,-0.132355,
0.8,-69.6294,-12.9,-0.137244,
0.802,-69.9028,-13.5,-0.138311,
0.804,-70.1769,-15.5,-0.131822,
0.806,-70.3923,-22.8,-0.115022,
0.808,-70.5529,-29.6,-0.072711,
0.81,-70.5925,-31.6,-0.008088,
0.812,-70.5492,-27.6,0.029866,
0.814,-70.4534,-22.2,0.051466,
0.816,-70.3453,-17.7,0.055911,
0.818,-70.2336,-15.2,0.053244,
0.82,-70.1274,-12.7,0.049955,
0.822,-70.0389,-12.3,0.041244,
0.824,-69.9584,-11.8,0.038488,
0.826,-69.8857,-11.8,0.036355,
0.828,-69.8137,-11.6,0.037422,
0.83,-69.7429,-11.4,0.036888,
0.832,-69.6746,-11,0.034666,
0.834,-69.5946,-10.8,0.039644,
0.836,-69.5116,-10.5,0.042311,
0.838,-69.4152,-10.2,0.049333,
0.84,-69.3157,-10,0.049866,
0.842,-69.2168,-9.7,0.048266,
0.844,-69.1124,-9.3,0.052622,
0.846,-69.0044,-9,0.054222,
0.848,-68.889,-8.8,0.056977,
0.85,-68.7645,-8.4,0.061333,
0.852,-68.6235,-8.2,0.072177,
0.854,-68.4716,-7.8,0.080266,
0.856,-68.3055,-7.5,0.087911,
0.858,-68.1322,-7.1,0.088977,
0.86,-67.9454,-6.7,0.0928,
0.862,-67.7416,-6.3,0.102488,
0.864,-67.5231,-5.9,0.109599,
0.866,-67.2899,-5.6,0.118844,
0.868,-67.0494,-5.1,0.122133,
0.87,-66.7986,-4.6,0.126399,
0.872,-66.541,-4.2,0.129155,
0.874,-66.2761,-3.6,0.131822,
0.876,-66.0088,-3.1,0.133422,
0.878,-65.7378,-2.6,0.133955,
0.88,-65.465,-2.1,0.135555,
0.882,-65.2123,-1.6,0.117155,
0.884,-64.9907,-4.3,0.112888,
0.886,-64.7985,-4.3,0.090577,
0.888,-64.6685,-3.9,0.057422,
0.89,-64.6062,-3.5,0.027111,
0.892,-64.6044,-2.9,-0.005955,
0.894,-64.6318,-2.9,-0.0184,
0.896,-64.6996,-2.8,-0.036355,
0.898,-64.7924,-2.7,-0.049422,
0.9,-64.904,-2.7,-0.056888,
0.902,-65.0341,-2.7,-0.066222,
0.904,-65.1775,-2.8,-0.074844,
0.906,-65.3227,-2.9,-0.069955,
0.908,-65.482,-3.1,-0.0808,
0.91,-65.645,-3.3,-0.083022,
0.912,-65.8135,-3.4,-0.086311,
0.914,-65.9807,-3.7,-0.085155,
0.916,-66.151,-4,-0.084622,
0.918,-66.3182,-4.3,-0.081866,
0.92,-66.4775,-4.6,-0.080266,
0.922,-66.6307,-4.9,-0.074844,
0.924,-66.7754,-5.3,-0.072177,
0.926,-66.9103,-5.8,-0.067288,
0.928,-67.0427,-6.3,-0.064533,
0.93,-67.1752,-6.7,-0.065155,
0.932,-67.3064,-7.3,-0.066222,
0.934,-67.4437,-7.7,-0.070488,
0.936,-67.5853,-8.2,-0.073777,
0.938,-67.7367,-8.5,-0.077066,
0.94,-67.8954,-9.1,-0.079733,
0.942,-68.0773,-9.4,-0.090666,
0.944,-68.2677,-9.9,-0.098222,
0.946,-68.4654,-10.4,-0.099822,
0.948,-68.6833,-10.9,-0.108977,
0.95,-68.9134,-11.3,-0.114399,
0.952,-69.1558,-11.9,-0.122666,
0.954,-69.4164,-12.5,-0.131822,
0.956,-69.6831,-13.1,-0.134044,
0.958,-69.9602,-13.8,-0.141066,
0.96,-70.2025,-18.2,-0.107377,
0.962,-70.4326,-24.5,-0.106844,
0.964,-70.5657,-30.7,-0.054311,
0.966,-70.5889,-31.4,0.002666,
0.968,-70.5333,-26.4,0.036355,
0.97,-70.4308,-21.1,0.052622,
0.972,-70.316,-16.8,0.058044,
0.974,-70.208,-14.7,0.053155,
0.976,-70.1036,-12.2,0.050488,
0.978,-70.0139,-12.6,0.042844,
0.98,-69.9376,-12.2,0.036355,
0.982,-69.8644,-11.8,0.0352,
0.984,-69.7942,-11.5,0.031999,
0.986,-69.7203,-11.3,0.036888,
0.988,-69.6508,-11.1,0.033066,
0.99,-69.5671,-10.7,0.041244,
0.992,-69.4847,-10.5,0.043466,
0.994,-69.3895,-10.2,0.048266,
0.996,-69.2949,-9.9,0.049955,
0.998,-69.2003,-9.6,0.051022,
1,-69.1014,-9.3,0.051022,
1.002,-68.9946,-9,0.053155,
1.004,-68.8774,-8.7,0.059733,
1.006,-68.748,-8.4,0.066755,
1.008,-68.6028,-8.1,0.075377,
1.01,-68.4526,-7.8,0.0776,
1.012,-68.2787,-7.4,0.087288,
1.014,-68.0986,-7.1,0.0928,
1.016,-67.91,-6.7,0.097155,
1.018,-67.7001,-6.3,0.106844,
1.02,-67.4803,-5.9,0.111288,
1.022,-67.2502,-5.4,0.116177,
1.024,-67.0091,-5,0.121066,
1.026,-66.7607,-4.5,0.124266,
1.028,-66.5019,-4.2,0.130755,
1.03,-66.2407,-3.6,0.128622,
1.032,-65.9709,-3.1,0.136177,
1.034,-65.6987,-2.6,0.137244,
1.036,-65.4216,-2.1,0.139466,
1.038,-65.1836,-1.9,0.098222,
1.04,-64.9492,-4.1,0.106933,
1.042,-64.7563,-4.3,0.090133,
1.044,-64.6392,-4,0.049866,
1.046,-64.5854,-3.6,0.017422,
1.048,-64.5854,-2.8,-0.002133,
1.05,-64.6276,-2.9,-0.023377,
1.052,-64.7008,-2.9,-0.037955,
1.054,-64.8033,-2.7,-0.056355,
1.056,-64.9199,-2.6,-0.060177,
1.058,-65.0566,-2.7,-0.070488,
1.06,-65.2025,-2.7,-0.072711,
1.062,-65.3533,-3,-0.0776,
1.064,-65.512,-3.1,-0.081422,
1.066,-65.6798,-3.3,-0.086222,
1.068,-65.8483,-3.5,-0.086311,
1.07,-66.0192,-3.7,-0.083022,
1.072,-66.1943,-4,-0.087288,
1.074,-66.3622,-4.3,-0.081422,
1.076,-66.5227,-4.6,-0.077066,
1.078,-66.6716,-5,-0.073777,
1.08,-66.8138,-5.4,-0.068888,
1.082,-66.9487,-5.9,-0.065066,
1.084,-67.0793,-6.3,-0.063466,
1.086,-67.2051,-6.9,-0.061333,
1.088,-67.3351,-7.3,-0.063466,
1.09,-67.4687,-7.8,-0.068888,
1.092,-67.6091,-8.2,-0.068888,
1.094,-67.7654,-8.7,-0.080355,
1.096,-67.9265,-9.2,-0.085155,
1.098,-68.1035,-9.6,-0.091644,
1.1,-68.2958,-10,-0.097155,
1.102,-68.5015,-10.5,-0.106399,
1.104,-68.7175,-11,-0.109066,
1.106,-68.9525,-11.4,-0.116088,
1.108,-69.1985,-12.1,-0.124799,
1.11,-69.4573,-12.6,-0.128622,
1.112,-69.727,-13.2,-0.133955,
1.114,-70.0078,-13.9,-0.140533,
1.116,-70.2416,-19.4,-0.096622,
1.118,-70.4595,-25.8,-0.097155,
1.12,-70.5779,-31.2,-0.046666,
1.122,-70.587,-30.7,0.005955,
1.124,-70.5193,-25.3,0.038488,
1.126,-70.4131,-20.2,0.056444,
1.128,-70.2989,-16.3,0.054311,
1.13,-70.1885,-14.4,0.054222,
1.132,-70.0902,-12,0.0488,
1.134,-70.0048,-12.3,0.041155,
1.136,-69.9297,-12.2,0.036888,
1.138,-69.8552,-11.7,0.036355,
1.14,-69.7869,-11.4,0.035733,
1.142,-69.7154,-11.3,0.035288,
1.144,-69.6465,-11.1,0.0336,
1.146,-69.5647,-10.7,0.040177,
1.148,-69.4774,-10.5,0.042311,
1.15,-69.3804,-10.3,0.049333,
1.152,-69.2821,-9.9,0.049333,
1.154,-69.182,-9.6,0.049333,
1.156,-69.0795,-9.3,0.052088,
1.158,-68.969,-9,0.055288,
1.16,-68.853,-8.6,0.060266,
1.162,-68.7194,-8.3,0.068355,
1.164,-68.5765,-8.1,0.073244,
1.166,-68.4191,-7.7,0.078133,
1.168,-68.25,-7.4,0.082488,
1.17,-68.0669,-7,0.092177,
1.172,-67.874,-6.6,0.097688,
1.174,-67.6592,-6.3,0.109066,
1.176,-67.4376,-5.9,0.113422,
1.178,-67.1996,-5.4,0.119911,
1.18,-66.9542,-5,0.125333,
1.182,-66.6997,-4.5,0.129688,
1.184,-66.4409,-4.1,0.130222,
1.186,-66.173,-3.5,0.135022,
1.188,-65.9056,-3,0.134577,
1.19,-65.631,-2.5,0.138844,
1.192,-65.3551,-1.9,0.140533,
1.194,-65.128,-3.4,0.086844,
1.196,-64.9028,-4,0.102577,
1.198,-64.7289,-4,0.080266,
1.2,-64.6288,-3.8,0.043377,
1.202,-64.5891,-3.6,0.010844,
1.204,-64.6031,-2.9,-0.012444,
1.206,-64.6514,-2.8,-0.026044,
1.208,-64.7289,-2.8,-0.046133,
1.21,-64.8308,-2.7,-0.054222,
1.212,-64.9529,-2.7,-0.064622,
1.214,-65.0933,-2.7,-0.070044,
1.216,-65.2349,-2.8,-0.070044,
1.218,-65.3868,-3.1,-0.074844,
1.22,-65.5413,-3.3,-0.0776,
1.222,-65.7128,-3.4,-0.087377,
1.224,-65.8831,-3.5,-0.084711,
1.226,-66.0564,-3.8,-0.085688,
1.228,-66.2261,-4.1,-0.082488,
1.23,-66.389,-4.3,-0.077511,
1.232,-66.5489,-4.8,-0.0808,
1.234,-66.6979,-5.1,-0.073777,
1.236,-66.837,-5.5,-0.066666,
1.238,-66.9695,-6,-0.066222,
1.24,-67.0989,-6.5,-0.063466,
1.242,-67.2283,-7,-0.062933,
1.244,-67.3613,-7.5,-0.067822,
1.246,-67.4919,-7.9,-0.070488,
1.248,-67.6348,-8.4,-0.072711,
1.25,-67.7892,-8.8,-0.078666,
1.252,-67.9546,-9.3,-0.086844,
1.254,-68.1359,-9.7,-0.0944,
1.256,-68.3281,-10.1,-0.096533,
1.258,-68.5362,-10.6,-0.105244,
1.26,-68.7596,-11.2,-0.116088,
1.262,-68.9965,-11.5,-0.117244,
1.264,-69.2461,-12.1,-0.125333,
1.266,-69.5079,-12.7,-0.131822,
1.268,-69.7832,-13.4,-0.136711,
1.27,-70.0652,-14.1,-0.140533,
1.272,-70.2983,-19.6,-0.107377,
1.274,-70.4973,-27.6,-0.090577,
1.276,-70.5944,-31.6,-0.036888,
1.278,-70.5797,-29.6,0.013599,
1.28,-70.501,-24.2,0.043911,
1.282,-70.3899,-19.1,0.055911,
1.284,-70.2758,-15.7,0.055822,
1.286,-70.1708,-13.7,0.049333,
1.288,-70.0725,-12,0.047733,
1.29,-69.9895,-12,0.040177,
1.292,-69.912,-12.1,0.040711,
1.294,-69.8442,-11.8,0.034755,
1.296,-69.7734,-11.5,0.035288,
1.298,-69.7039,-11.2,0.036266,
1.3,-69.6269,-11,0.041244,
1.302,-69.5464,-10.6,0.043377,
1.304,-69.4548,-10.4,0.048266,
1.306,-69.3572,-10.2,0.051555,
1.308,-69.2638,-9.9,0.0472,
1.31,-69.1619,-9.6,0.049866,
1.312,-69.0593,-9.3,0.052088,
1.314,-68.9476,-9,0.056444,
1.316,-68.8243,-8.6,0.061333,
1.318,-68.6907,-8.4,0.067288,
1.32,-68.543,-8,0.077511,
1.322,-68.3806,-7.8,0.085155,
1.324,-68.2097,-7.4,0.088977,
1.326,-68.0254,-7,0.093866,
1.328,-67.8289,-6.6,0.101955,
