Time(s),MC SW Overview - Actual Position(mm),MC SW Force Control - Measured Force(N),MC SW Force Control - Actual Acceleration(m/s^2),MC SW Overview - Actual Velocity(m/s),
0,-0.3246,-5.1,2.878,0,
0.005,-0.2373,-4.2,9.406,0.029866,
0.01,-0.1446,-6,-17.818,-0.010844,
0.015,-0.1629,-5.2,4.144,0.007111,
0.02,-0.1636,-4.6,-1.762,0,
0.025,-0.1629,-5,-0.291,-0.000533,
0.03,-0.166,-5,0.481,-0.003288,
0.035,-0.1617,-5.1,-2.972,0.002755,
0.04,-0.1642,-5.1,-1.001,0.000533,
0.045,-0.166,-5.2,3.06,0.003288,
0.05,-0.1697,-5.1,-2.844,-0.003822,
0.055,-0.1691,-5.1,0.542,-0.001155,
0.06,-0.1745,-5.2,-6.366,-0.005955,
0.065,-0.1824,-5.2,-1.634,0.000533,
0.07,-0.1952,-5.1,0.242,-0.0016,
0.075,-0.2031,-5.3,1.43,-0.001066,
0.08,-0.2471,-5.4,-4.491,-0.013066,
0.085,-0.3356,-5.4,0.114,-0.017955,
0.09,-0.4564,-5.3,-1.091,-0.027644,
0.095,-0.6072,-5.3,-3.611,-0.029866,
0.1,-0.7695,-5.2,-1.32,-0.034666,
0.105,-0.9374,-5.1,0.482,-0.033066,
0.11,-1.0985,-5.1,-0.858,-0.028711,
0.115,-1.2499,-5.1,0.603,-0.028266,
0.12,-1.4006,-5.1,0.147,-0.031466,
0.125,-1.5465,-5.2,-0.438,-0.029244,
0.13,-1.7022,-5.2,-2.186,-0.031466,
0.135,-1.8676,-5.2,-2.211,-0.031466,
0.14,-2.0513,-5.2,3.169,-0.036355,
0.145,-2.2472,-5.2,-0.69,-0.040711,
0.15,-2.4511,-5.2,-2.848,-0.042311,
0.155,-2.661,-5.2,4.271,-0.041244,
0.16,-2.8795,-5.2,-3.461,-0.047733,
0.165,-3.1017,-5.2,-0.536,-0.044533,
0.17,-3.3385,-5.2,-4.934,-0.051555,
0.175,-3.5778,-5.2,-0.2,-0.049955,
0.18,-3.8231,-5.2,-3.528,-0.049333,
0.185,-4.0734,-5.2,-3.347,-0.048266,
0.19,-4.337,-5.2,-1.509,-0.059111,
0.195,-4.6001,-5.2,1.695,-0.050488,
0.2,-4.8821,-5.2,-1.891,-0.058577,
0.205,-5.1671,-5.2,-2.068,-0.057511,
0.21,-5.4631,-5.2,0.142,-0.059111,
0.215,-5.7616,-5.2,-0.431,-0.059644,
0.22,-6.0741,-5.2,-1.983,-0.066222,
0.225,-6.3884,-5.2,-0.353,-0.062399,
0.23,-6.7125,-5.2,1.664,-0.065066,
0.235,-7.0372,-5.2,-0.53,-0.063999,
0.24,-7.3662,-5.2,-1.317,-0.067288,
0.245,-7.7019,-5.3,-2.764,-0.066755,
0.25,-8.0516,-5.2,2.044,-0.069955,
0.255,-8.4148,-5.2,1.557,-0.071644,
0.26,-8.792,-5.2,0.441,-0.077066,
0.265,-9.1735,-5.2,0.969,-0.076533,
0.27,-9.5617,-5.2,0.512,-0.078133,
0.275,-9.9547,-5.2,0.151,-0.078133,
0.28,-10.36,-5.2,-1.756,-0.084622,
0.285,-10.764,-5.2,-1.777,-0.0808,
0.29,-11.1797,-5.2,-4.558,-0.087911,
0.295,-11.5856,-5.2,1.366,-0.0776,
0.3,-12.0061,-5.2,-2.891,-0.085155,
0.305,-12.4321,-5.3,-1.514,-0.084088,
0.31,-12.8618,-5.3,-4.638,-0.089511,
0.315,-13.2933,-5.2,0.97,-0.082933,
0.32,-13.7358,-5.2,1.696,-0.086755,
0.325,-14.1845,-5.2,-0.221,-0.088977,
0.33,-14.6392,-5.3,-4.658,-0.096088,
0.335,-15.0914,-5.2,1.202,-0.091111,
0.34,-15.5529,-5.3,1.398,-0.093866,
0.345,-16.0192,-5.3,-1.848,-0.0928,
0.35,-16.4885,-5.3,1.351,-0.094933,
0.355,-16.9524,-5.3,0.426,-0.091644,
0.36,-17.4254,-5.2,0.393,-0.096,
0.365,-17.8966,-5.2,2.357,-0.093333,
0.37,-18.3672,-5.3,-2.761,-0.0944,
0.375,-18.8433,-5.3,-0.628,-0.096088,
0.38,-19.3139,-5.2,0.673,-0.0928,
0.385,-19.7795,-5.3,-0.891,-0.092711,
0.39,-20.2538,-5.3,1.744,-0.092266,
0.395,-20.7354,-5.3,-6.432,-0.096622,
0.4,-21.223,-5.3,1.466,-0.0976,
0.405,-21.7083,-5.2,2.824,-0.0928,
0.41,-22.2026,-5.3,2.556,-0.098133,
0.415,-22.697,-5.3,1.003,-0.093866,
0.42,-23.189,-5.3,-1.186,-0.100977,
0.425,-23.6705,-5.3,-1.17,-0.0944,
0.43,-24.1564,-5.3,2.326,-0.095466,
0.435,-24.6379,-5.4,7.007,-0.097066,
0.44,-25.1183,-5.3,0.397,-0.096533,
0.445,-25.5938,-5.3,0.966,-0.093866,
0.45,-26.0772,-5.4,-0.911,-0.096622,
0.455,-26.5715,-5.3,-0.206,-0.0976,
0.46,-27.0733,-5.4,-1.64,-0.103111,
0.465,-27.575,-5.3,-0.856,-0.100444,
0.47,-28.0791,-5.4,0.443,-0.103111,
0.475,-28.5894,-5.3,-0.956,-0.102044,
0.48,-29.1002,-5.3,1.842,-0.101422,
0.485,-29.6056,-5.3,1.207,-0.100355,
0.49,-30.1207,-5.3,-1.486,-0.104177,
0.495,-30.6322,-5.3,-1.433,-0.103111,
0.5,-31.1486,-5.2,4.443,-0.099288,
0.505,-31.668,-5.3,-4.513,-0.103644,
0.51,-32.1935,-5.3,-1.393,-0.105777,
0.515,-32.7202,-5.2,-2.075,-0.105244,
0.52,-33.2543,-5.2,1.439,-0.104711,
0.525,-33.7767,-5.3,0.939,-0.102488,
0.53,-34.3065,-5.3,-0.298,-0.103644,
0.535,-34.8326,-5.3,0.154,-0.103022,
0.54,-35.3539,-5.2,2.114,-0.105244,
0.545,-35.8702,-5.3,3.969,-0.103022,
0.55,-36.3866,-5.3,-1.071,-0.101955,
0.555,-36.9054,-5.3,1.717,-0.102577,
0.56,-37.4181,-5.2,1.784,-0.100888,
0.565,-37.932,-5.3,-0.373,-0.101955,
0.57,-38.4429,-5.3,0.854,-0.102044,
0.575,-38.9568,-5.2,1.118,-0.104177,
0.58,-39.4707,-5.2,2.05,-0.102488,
0.585,-39.9804,-5.2,2.838,-0.099822,
0.59,-40.4882,-5.2,1.977,-0.100977,
0.595,-40.9929,-5.2,-2.8,-0.100355,
0.6,-41.4928,-5.2,-5.281,-0.101422,
0.605,-41.9817,-5.2,-4.073,-0.101422,
0.61,-42.4688,-5.2,-0.2,-0.096622,
0.615,-42.9522,-5.2,3.472,-0.097688,
0.62,-43.4295,-5.2,-1.102,-0.095555,
0.625,-43.9031,-5.2,4.415,-0.091733,
0.63,-44.3688,-5.2,6.231,-0.088977,
0.635,-44.8473,-5.2,-0.905,-0.093866,
0.64,-45.3179,-5.2,-4.281,-0.097688,
0.645,-45.7836,-5.2,1.981,-0.092266,
0.65,-46.2444,-5.2,0.291,-0.090044,
0.655,-46.7028,-5.2,0.236,-0.091733,
0.66,-47.1575,-5.2,-0.17,-0.088977,
0.665,-47.6049,-5.2,1.185,-0.090666,
0.67,-48.048,-5.2,5.01,-0.086311,
0.675,-48.4899,-5.2,-0.519,-0.089511,
0.68,-48.9312,-5.2,-2.658,-0.089511,
0.685,-49.3706,-5.2,-2.383,-0.091111,
0.69,-49.7991,-5.2,1.608,-0.084088,
0.695,-50.2275,-5.2,-1.114,-0.086755,
0.7,-50.6554,-5.2,-1.122,-0.089511,
0.705,-51.0772,-5.2,1.261,-0.082488,
0.71,-51.4983,-5.2,2.019,-0.084622,
0.715,-51.9194,-5.2,-2.156,-0.086755,
0.72,-52.3265,-5.2,-1.811,-0.080266,
0.725,-52.7324,-5.2,-0.533,-0.0792,
0.73,-53.1316,-5.2,0.218,-0.075377,
0.735,-53.5326,-5.2,2.311,-0.0792,
0.74,-53.9165,-5.2,4.252,-0.072711,
0.745,-54.3004,-5.3,2.867,-0.074311,
0.75,-54.6807,-5.2,1.435,-0.070577,
0.755,-55.0548,-5.2,-1.641,-0.075377,
0.76,-55.4247,-5.2,-0.11,-0.073244,
0.765,-55.7872,-5.2,0.419,-0.070488,
0.77,-56.1364,-5.2,-0.362,-0.068355,
0.775,-56.48,-5.2,2.522,-0.067822,
0.78,-56.8163,-5.3,-0.575,-0.067288,
0.785,-57.1508,-5.2,2.116,-0.064622,
0.79,-57.4791,-5.2,-1.504,-0.063466,
0.795,-57.8014,-5.2,1.183,-0.061866,
0.8,-58.1145,-5.2,0.516,-0.060711,
0.805,-58.4203,-5.2,0.092,-0.060799,
0.81,-58.7163,-5.2,-0.945,-0.059644,
0.815,-59.0062,-5.2,0.999,-0.059111,
0.82,-59.2797,-5.2,1.933,-0.051022,
0.825,-59.5458,-5.2,1.61,-0.051555,
0.83,-59.8064,-5.3,-1.56,-0.049866,
0.835,-60.0597,-5.2,1.639,-0.049333,
0.84,-60.3057,-5.2,1.179,-0.045066,
0.845,-60.5535,-5.2,-6.06,-0.053155,
0.85,-60.7836,-5.2,3.246,-0.045066,
0.855,-61.0131,-5.2,2.417,-0.044533,
0.86,-61.2279,-5.2,4.387,-0.038488,
0.865,-61.4415,-5.2,1.885,-0.040088,
0.87,-61.6436,-5.2,-2.252,-0.040711,
0.875,-61.8383,-5.2,-1.194,-0.039644,
0.88,-62.0177,-5.2,0.423,-0.034133,
0.885,-62.1953,-5.2,0.816,-0.037422,
0.89,-62.365,-5.2,2.838,-0.035822,
0.895,-62.5322,-5.2,2.822,-0.0336,
0.9,-62.6921,-5.3,-0.869,-0.0336,
0.905,-62.8472,-5.2,-3.76,-0.029866,
0.91,-62.9949,-5.3,-1.546,-0.028266,
0.915,-63.1365,-5.2,-1.495,-0.031999,
0.92,-63.2616,-5.4,2.936,-0.022755,
0.925,-63.38,-5.7,-1.772,-0.023288,
0.93,-63.4795,-6.5,3.157,-0.0168,
0.935,-63.5643,-6.5,0.243,-0.0168,
0.94,-63.6278,-6.5,1.508,-0.010844,
0.945,-63.7047,-6.5,2.812,-0.0184,
0.95,-63.7731,-6.6,1.624,-0.014666,
0.955,-63.8439,-6.6,-3.661,-0.0168,
0.96,-63.9092,-6.7,5.187,-0.009777,
0.965,-63.9702,-6.6,-1.002,-0.013511,
0.97,-64.0184,-6.5,0.794,-0.007555,
0.975,-64.0618,-6.6,-1.342,-0.008711,
0.98,-64.0892,-6.6,0.791,-0.001066,
0.985,-64.11,-6.6,0.62,-0.003288,
0.99,-64.1191,-6.5,1.995,-0.0016,
0.995,-64.1246,-6.5,5.147,0.000622,
1,-64.132,-6.5,-5.886,-0.005422,
1.005,-64.1692,-6.7,-2.521,-0.010844,
1.01,-64.2925,-6.6,-4.301,-0.033688,
1.015,-64.5037,-6.6,-2.351,-0.048888,
1.02,-64.8149,-6.6,-3.766,-0.065066,
1.025,-65.2141,-6.7,-4.8,-0.088444,
1.03,-65.6878,-6.8,-1.264,-0.100444,
1.035,-66.2279,-7.2,-0.826,-0.110666,
1.04,-66.8181,-7.3,-0.332,-0.120977,
1.045,-67.4321,-7.3,-1.963,-0.123111,
1.05,-68.0626,-7.9,1.076,-0.126933,
1.055,-68.6882,-9.1,4.033,-0.120444,
1.06,-69.2992,-10.4,1.826,-0.120444,
1.065,-69.8754,-11.9,3.25,-0.110666,
1.07,-70.396,-19.8,4.044,-0.094933,
1.075,-70.6975,-32.7,14.09,-0.030933,
1.08,-70.7183,-33.4,3.84,0.005422,
1.085,-70.7,-31.4,-1.995,-0.001688,
1.09,-70.7134,-32.1,2.467,-0.002755,
1.095,-70.728,-33.4,1.79,-0.0016,
1.1,-70.7323,-33.9,1.372,0.001066,
1.105,-70.7244,-33.8,0.251,-0.001688,
1.11,-70.7079,-33.1,2.444,0.005955,
1.115,-70.6603,-29.8,0.112,0.014666,
1.12,-70.562,-24,-1.552,0.022222,
1.125,-70.4308,-18.2,0.762,0.027111,
1.13,-70.2709,-13.8,2.154,0.034666,
1.135,-70.0554,-11.6,2.559,0.053155,
1.14,-69.7271,-10.8,4.656,0.078044,
1.145,-69.2516,-9.9,6.18,0.104711,
1.15,-68.6315,-9.2,6.686,0.134488,
1.155,-67.9363,-8.3,1.666,0.143733,
1.16,-67.2075,-7.4,-0.356,0.145955,
1.165,-66.5032,-6.6,-5.46,0.135111,
1.17,-65.8641,-6.3,-3.969,0.121066,
1.175,-65.3392,-6.4,-2.619,0.098222,
1.18,-64.9297,-6.6,-7.124,0.072177,
1.185,-64.6453,-6.6,-5.88,0.047733,
1.19,-64.4695,-6.5,-5.569,0.024977,
1.195,-64.3908,-6.4,-3.568,0.009688,
1.2,-64.3889,-6.3,1.046,0,
1.205,-64.3932,-6.4,-0.371,0.000533,
1.21,-64.3938,-6.4,3.484,-0.002666,
1.215,-64.3914,-6.4,3.045,0.0032,
1.22,-64.3908,-6.4,-1.519,0.001066,
1.225,-64.3914,-6.4,2.499,0.002666,
1.23,-64.3895,-6.4,0.49,0.004355,
1.235,-64.3938,-6.4,-2.552,-0.0016,
1.24,-64.3889,-6.4,0.413,0.001066,
1.245,-64.395,-6.4,0.273,0,
1.25,-64.3932,-6.4,1.32,0.0016,
1.255,-64.3932,-6.5,-0.014,0.002133,
1.26,-64.392,-6.5,-0.691,-0.001688,
1.265,-64.3944,-6.4,-6.609,-0.005955,
1.27,-64.3938,-6.4,0.181,0,
1.275,-64.3932,-6.4,-4.579,0,
1.28,-64.392,-6.4,-2.129,-0.002755,
1.285,-64.3956,-6.4,-0.803,-0.0016,
1.29,-64.3944,-6.4,-3.182,-0.002666,
1.295,-64.395,-6.5,5.27,-0.000533,
1.3,-64.3908,-6.4,-0.802,0.000533,
1.305,-64.3877,-6.5,0.766,0.003822,
1.31,-64.3944,-6.5,-3.73,-0.003822,
1.315,-64.395,-6.5,3.738,-0.000533,
1.32,-64.3914,-6.4,3.647,0.000533,
1.325,-64.392,-6.4,-1.616,0,
1.33,-64.3944,-6.4,5.267,0,
1.335,-64.3914,-6.4,-5.517,-0.004355,
1.34,-64.3944,-6.4,-2.382,-0.004355,
1.345,-64.392,-6.4,1.163,0.002133,
1.35,-64.3956,-6.4,1.455,-0.0016,
1.355,-64.3908,-6.4,3.663,0.004266,
1.36,-64.392,-6.5,2.813,-0.000533,
1.365,-64.392,-6.4,-1.709,0,
1.37,-64.3914,-6.5,1.891,-0.001688,
1.375,-64.3914,-6.5,2.438,0.0016,
1.38,-64.3914,-6.4,0.674,0.002133,
1.385,-64.3908,-6.4,-2.05,-0.001155,
1.39,-64.392,-6.5,-3.714,0.001066,
1.395,-64.3938,-6.5,-1.345,0,
1.4,-64.392,-6.4,-1.522,-0.000533,
1.405,-64.3908,-6.5,4.685,0.002666,
1.41,-64.3889,-6.4,3.439,0.005955,
1.415,-64.3883,-6.5,0.604,0.003288,
1.42,-64.3932,-6.4,-4.256,0.0016,
1.425,-64.3895,-6.4,-1.602,0.003822,
1.43,-64.3889,-6.5,-0.034,0.002755,
1.435,-64.3871,-6.5,-5.228,0.002666,
1.44,-64.3914,-6.5,-1.973,0,
1.445,-64.3938,-6.5,-1.133,-0.003288,
1.45,-64.3908,-6.4,6.307,0.002666,
1.455,-64.392,-6.4,0.211,-0.000533,
1.46,-64.3895,-6.4,1.184,0.001155,
1.465,-64.3883,-6.5,2.881,0.005422,
1.47,-64.3883,-6.5,3.487,0.002755,
1.475,-64.395,-6.5,4.556,0,
1.48,-64.3889,-6.4,0.854,0.000533,
1.485,-64.3908,-6.4,-0.555,0.001066,
1.49,-64.3895,-6.4,-3.603,-0.0016,
1.495,-64.3908,-6.4,-0.307,0.004266,
1.5,-64.392,-6.4,3.795,0.002133,
1.505,-64.3944,-6.4,5.426,-0.000533,
1.51,-64.3889,-6.5,0.396,0.001688,
1.515,-64.3908,-6.4,0.627,0.003733,
1.52,-64.3938,-6.4,0.358,-0.0016,
1.525,-64.3914,-6.4,0.903,0.0016,
1.53,-64.3908,-6.4,2.651,0.0032,
1.535,-64.3889,-6.5,-1.094,0.001066,
1.54,-64.392,-6.5,2.93,0.0016,
1.545,-64.3908,-6.4,2.662,0.003733,
1.55,-64.3908,-6.4,-1.177,-0.001155,
1.555,-64.3908,-6.4,-3.58,-0.000622,
1.56,-64.3938,-6.4,-3.909,-0.004888,
1.565,-64.3908,-6.4,2.548,0.001066,
1.57,-64.392,-6.5,4.079,0.002133,
1.575,-64.3883,-6.4,1.793,0.005955,
1.58,-64.3901,-6.5,3.822,0.003288,
1.585,-64.3908,-6.4,2.41,0.003733,
1.59,-64.3895,-6.4,0.402,0.003288,
1.595,-64.3908,-6.4,-1.396,-0.001688,
1.6,-64.3895,-6.5,-2.407,0.000533,
1.605,-64.3938,-6.4,3.214,0.0016,
1.61,-64.3901,-6.4,1.204,-0.000533,
1.615,-64.3914,-6.4,-0.833,-0.003822,
1.62,-64.3889,-6.4,-0.772,0.001688,
1.625,-64.3901,-6.4,-1.287,-0.0016,
1.63,-64.3877,-6.4,-1.809,0.003288,
1.635,-64.3908,-6.4,-0.565,0.002666,
1.64,-64.3895,-6.5,3.75,0.004888,
1.645,-64.3938,-6.4,-2.725,-0.006488,
1.65,-64.3914,-6.4,-1.851,-0.000533,
1.655,-64.3901,-6.4,-4.375,-0.002133,
1.66,-64.3901,-6.4,-1.918,0.000622,
1.665,-64.392,-6.5,-5.946,-0.003288,
1.67,-64.3944,-6.4,-3.295,-0.004355,
1.675,-64.3889,-6.5,1.824,0,
1.68,-64.3901,-6.5,0.146,-0.001066,
1.685,-64.3938,-6.4,-1.901,-0.004355,
1.69,-64.3938,-6.4,4.687,0,
1.695,-64.3883,-6.5,-0.451,0.002222,
1.7,-64.3956,-6.5,2.382,-0.004888,
1.705,-64.4078,-6.5,-1.995,-0.005422,
1.71,-64.4597,-6.6,-0.232,-0.015199,
1.715,-64.6056,-6.6,-9.351,-0.037955,
1.72,-64.8607,-6.7,-1.111,-0.059644,
1.725,-65.2245,-6.8,-0.394,-0.078133,
1.73,-65.6884,-7.1,-4.822,-0.098755,
1.735,-66.2352,-7.3,-4.51,-0.116622,
1.74,-66.8352,-7.1,0.883,-0.120977,
1.745,-67.4633,-7.5,0.878,-0.124266,
1.75,-68.0962,-8.5,0.956,-0.125866,
1.755,-68.7261,-9.8,2.057,-0.122666,
1.76,-69.3309,-11.3,1.305,-0.120977,
1.765,-69.8973,-12.7,1.019,-0.109511,
1.77,-70.407,-20.4,2.598,-0.0928,
1.775,-70.703,-33.1,13.672,-0.035288,
1.78,-70.7146,-33.7,5.416,0.008711,
1.785,-70.6963,-31.9,-3.18,0.0016,
1.79,-70.7122,-32.7,-0.919,-0.001688,
1.795,-70.728,-33.9,4.847,0.001155,
1.8,-70.7286,-34.4,4.445,0.004355,
1.805,-70.7244,-34.3,-1.902,-0.000533,
1.81,-70.7073,-33.6,-0.667,0.005955,
1.815,-70.6633,-30.2,-0.879,0.012,
1.82,-70.5602,-24.4,3.273,0.026577,
1.825,-70.4302,-18.6,1.194,0.028711,
1.83,-70.2758,-14.2,2.205,0.034666,
1.835,-70.0597,-12,3.363,0.049333,
1.84,-69.7258,-11.2,4.02,0.076,
1.845,-69.2455,-10.3,2.846,0.107377,
1.85,-68.6248,-9.5,11.139,0.137777,
1.855,-67.9363,-8.7,-2.13,0.1416,
1.86,-67.2063,-7.7,3.431,0.148088,
1.865,-66.5032,-6.9,-12.522,0.134488,
1.87,-65.8623,-6.3,1.498,0.123199,
1.875,-65.3399,-6.3,-6.881,0.095466,
1.88,-64.9346,-6.7,-2.639,0.074844,
1.885,-64.6465,-6.7,-3.527,0.051022,
1.89,-64.4719,-6.5,-4.119,0.026577,
1.895,-64.3938,-6.4,1.752,0.010844,
1.9,-64.3877,-6.3,1.421,0.0016,
1.905,-64.3956,-6.5,0.337,-0.0032,
1.91,-64.395,-6.4,-2.875,-0.0032,
1.915,-64.3914,-6.4,-1.903,0.0032,
1.92,-64.395,-6.4,-4.999,-0.005422,
1.925,-64.392,-6.5,1.525,0,
1.93,-64.3889,-6.5,-2.446,0.001688,
1.935,-64.395,-6.4,0.198,-0.004355,
1.94,-64.3914,-6.4,6.733,0.003733,
1.945,-64.392,-6.4,-0.424,-0.002755,
1.95,-64.3914,-6.4,2.683,0.000533,
1.955,-64.3914,-6.5,1.146,0.002133,
1.96,-64.3956,-6.4,1.642,-0.001066,
1.965,-64.3914,-6.5,1.217,0.003733,
1.97,-64.3914,-6.4,0.771,0,
1.975,-64.3908,-6.4,3.852,0.0032,
1.98,-64.3938,-6.4,5.474,0.001066,
1.985,-64.3956,-6.4,0.379,-0.000533,
1.99,-64.392,-6.4,2.329,0.0032,
1.995,-64.3938,-6.4,1.452,0.000533,
2,-64.3908,-6.4,8.169,0.002666,
2.005,-64.3908,-6.4,-4.585,-0.000622,
2.01,-64.395,-6.4,0.673,0,
2.015,-64.392,-6.5,8.346,0.002666,
2.02,-64.395,-6.4,1.872,0,
2.025,-64.3938,-6.5,0.496,-0.002666,
2.03,-64.3914,-6.5,1.427,0.003733,
2.035,-64.3908,-6.5,2.992,0.0032,
2.04,-64.395,-6.4,5.035,-0.001066,
2.045,-64.395,-6.4,2.449,0.001688,
2.05,-64.3914,-6.4,0.594,0.002133,
2.055,-64.3895,-6.4,-2.558,0.004888,
2.06,-64.395,-6.5,2.233,-0.000533,
2.065,-64.3944,-6.5,3.996,0.000533,
2.07,-64.395,-6.4,-3.118,-0.003733,
2.075,-64.3908,-6.4,2.698,0.003733,
2.08,-64.392,-6.4,1.616,0.0032,
2.085,-64.3938,-6.4,2.341,0.001066,
2.09,-64.3938,-6.5,0.18,-0.002666,
2.095,-64.3944,-6.4,1.117,0.001066,
2.1,-64.3932,-6.4,1.293,0.002133,
2.105,-64.3944,-6.4,-1.44,-0.002666,
2.11,-64.3944,-6.4,3.434,0,
2.115,-64.3908,-6.5,-2.302,0.000533,
2.12,-64.3895,-6.4,1.888,0.004888,
2.125,-64.3938,-6.5,-1.198,-0.003822,
2.13,-64.3889,-6.4,4.615,0.005955,
2.135,-64.3944,-6.5,-2.76,-0.004355,
2.14,-64.3932,-6.5,-4.44,-0.003288,
2.145,-64.3932,-6.4,-1.101,0.001066,
2.15,-64.3908,-6.4,-2.147,0.002133,
2.155,-64.3938,-6.4,-1.976,-0.002133,
2.16,-64.392,-6.4,-1.12,0.0032,
2.165,-64.3938,-6.5,1.908,0.000533,
2.17,-64.3895,-6.5,1.676,0.004888,
2.175,-64.3883,-6.5,1.976,0.005422,
2.18,-64.3914,-6.4,1.599,0.002666,
2.185,-64.3914,-6.5,-0.476,0,
2.19,-64.3938,-6.4,1.847,-0.000533,
2.195,-64.3901,-6.4,0.713,0.004888,
2.2,-64.3901,-6.5,-3.174,0.001155,
2.205,-64.3914,-6.4,3.399,0.0032,
2.21,-64.3889,-6.4,-2.339,0.002222,
2.215,-64.3914,-6.4,0.135,0.0016,
2.22,-64.392,-6.4,0.037,0.0016,
2.225,-64.392,-6.5,1.101,0.0016,
2.23,-64.3938,-6.5,0.612,-0.0016,
2.235,-64.3944,-6.4,3.17,0.000533,
2.24,-64.3938,-6.4,-0.781,0.001066,
2.245,-64.3938,-6.4,-4.937,-0.002666,
2.25,-64.3901,-6.5,-1.486,0.004355,
2.255,-64.3938,-6.5,0.032,0.001066,
2.26,-64.3914,-6.4,-2.707,-0.001688,
2.265,-64.3914,-6.4,-1.169,0.0016,
2.27,-64.392,-6.4,-4.701,-0.001688,
2.275,-64.3901,-6.5,2.82,0.002755,
2.28,-64.3944,-6.4,0.752,-0.002133,
2.285,-64.3889,-6.5,-0.066,0.002755,
2.29,-64.3938,-6.4,-0.402,-0.003288,
2.295,-64.392,-6.4,2.548,0,
2.3,-64.392,-6.4,0.75,0.001066,
2.305,-64.3932,-6.4,0.032,0.001066,
2.31,-64.3883,-6.4,2.496,0.005422,
2.315,-64.3914,-6.4,2.009,0,
2.32,-64.3932,-6.4,1.554,-0.001066,
2.325,-64.3889,-6.4,-3.534,0.001688,
2.33,-64.3944,-6.5,-2.484,-0.004888,
2.335,-64.395,-6.4,0.478,-0.000533,
2.34,-64.3956,-6.4,-2.907,-0.0016,
2.345,-64.3932,-6.5,2.461,-0.001066,
2.35,-64.392,-6.4,-0.276,0.0016,
2.355,-64.3932,-6.5,-0.728,0.0016,
2.36,-64.392,-6.4,-1.83,0.002133,
2.365,-64.3895,-6.4,4.893,0,
2.37,-64.395,-6.4,2.755,0,
2.375,-64.3889,-6.5,1.123,0.004355,
2.38,-64.3944,-6.4,1.009,0.000533,
2.385,-64.395,-6.4,-0.224,0,
2.39,-64.3956,-6.5,-1.573,-0.004888,
2.395,-64.392,-6.5,2.555,-0.001066,
2.4,-64.3956,-6.4,-4.431,-0.0032,
2.405,-64.4091,-6.5,-3.564,-0.004888,
2.41,-64.4622,-6.6,-0.371,-0.018488,
2.415,-64.605,-6.6,-6.926,-0.037422,
2.42,-64.8607,-6.7,-2.192,-0.059644,
2.425,-65.2263,-6.9,-5.24,-0.080266,
2.43,-65.6902,-7.2,-1.972,-0.097688,
2.435,-66.2383,-7.2,-1.956,-0.116622,
2.44,-66.8407,-7.2,-1.028,-0.123111,
2.445,-67.4706,-7.6,-1.796,-0.125866,
2.45,-68.1047,-8.7,3.985,-0.124711,
2.455,-68.7261,-10.1,1.825,-0.119377,
2.46,-69.3297,-11.6,2.739,-0.116088,
2.465,-69.8919,-12.9,-0.809,-0.110133,
2.47,-70.4015,-20.4,4.607,-0.095466,
2.475,-70.7012,-33.3,15.565,-0.033688,
2.48,-70.717,-34,2.782,0.008711,
2.485,-70.7048,-32.2,-5.821,-0.0032,
2.49,-70.714,-32.8,0.527,-0.003288,
2.495,-70.7317,-34.1,0.031,-0.005422,
2.5,-70.7286,-34.6,4.673,0.005422,
2.505,-70.7256,-34.5,2.87,0.002666,
2.51,-70.7073,-33.7,-1.461,0.005422,
2.515,-70.6633,-30.4,2.1,0.013599,
2.52,-70.5626,-24.5,3.421,0.023377,
2.525,-70.429,-18.8,-2.174,0.032533,
2.53,-70.28,-14.4,2.744,0.032622,
2.535,-70.0603,-12.2,3.735,0.052622,
2.54,-69.7295,-11.4,5.696,0.075377,
2.545,-69.2418,-10.5,4.959,0.111822,
2.55,-68.6266,-9.7,5.405,0.135644,
2.555,-67.9326,-8.8,0.029,0.1416,
2.56,-67.2051,-7.9,2.101,0.147022,
2.565,-66.5014,-7,-0.466,0.137777,
2.57,-65.8648,-6.4,-2.903,0.120977,
2.575,-65.3429,-6.2,-4.336,0.096,
2.58,-64.937,-6.6,-3.54,0.070044,
2.585,-64.6514,-6.6,-4.666,0.047733,
2.59,-64.4719,-6.6,-3.099,0.030933,
2.595,-64.3987,-6.4,-2.376,0.007555,
2.6,-64.392,-6.3,3.446,0.005955,
2.605,-64.3956,-6.4,-0.2,0,
2.61,-64.3938,-6.4,-0.309,0.002755,
2.615,-64.3962,-6.4,-0.517,-0.000533,
2.62,-64.3956,-6.4,-0.851,-0.000533,
2.625,-64.3956,-6.4,-3.273,-0.001066,
2.63,-64.3938,-6.5,1.703,0.0016,
2.635,-64.3956,-6.4,-0.429,0.001155,
2.64,-64.3956,-6.4,-0.808,0.000533,
2.645,-64.3962,-6.4,-0.616,-0.000533,
2.65,-64.3944,-6.4,1.018,0,
2.655,-64.3956,-6.4,-1.793,-0.000533,
2.66,-64.395,-6.5,0.307,-0.000533,
2.665,-64.3956,-6.4,-0.463,0,
2.67,-64.3962,-6.5,0.423,-0.000533,
2.675,-64.3956,-6.4,0.14,0,
2.68,-64.3956,-6.5,0.172,0,
2.685,-64.3962,-6.5,1.401,-0.000533,
2.69,-64.3962,-6.4,0.176,-0.000533,
2.695,-64.3956,-6.4,-0.412,0,
2.7,-64.3938,-6.5,0.741,0.0016,
2.705,-64.395,-6.5,-3.209,-0.0016,
2.71,-64.3956,-6.4,-2.199,-0.001066,
2.715,-64.3938,-6.4,0.443,0.0016,
2.72,-64.3956,-6.4,-4.456,-0.001066,
2.725,-64.395,-6.4,-0.292,-0.0016,
2.73,-64.3956,-6.4,0.473,-0.002133,
2.735,-64.3956,-6.5,-3.168,-0.002133,
2.74,-64.3932,-6.4,1.443,0.0016,
2.745,-64.3932,-6.4,3.987,0.002133,
2.75,-64.3956,-6.4,-1.264,-0.000533,
2.755,-64.395,-6.4,-0.767,-0.000533,
2.76,-64.3932,-6.5,0.203,0.001066,
2.765,-64.3932,-6.4,1.037,0.002133,
2.77,-64.3932,-6.4,0.276,0.001066,
2.775,-64.3962,-6.4,-1.367,-0.001066,
2.78,-64.3956,-6.4,-0.894,-0.001066,
