Time(s),MC SW Overview - Actual Position(mm),MC SW Force Control - Measured Force(N),MC SW Force Control - Actual Acceleration(m/s^2),MC SW Overview - Actual Velocity(m/s),
0,-0.3349,-5.2,-1.672,-0.005955,
0.005,-0.2294,-4.4,9.135,0.033066,
0.01,-0.1477,-5.8,-16.022,-0.014133,
0.015,-0.1654,-5.3,3.369,0.002133,
0.02,-0.1641,-4.8,-0.81,-0.002666,
0.025,-0.1617,-5.1,1.053,0.002133,
0.03,-0.166,-5.1,0.566,-0.004888,
0.035,-0.1648,-5.1,3.361,0.000533,
0.04,-0.1648,-5.1,-2.656,0,
0.045,-0.1648,-5.2,3.338,0.000533,
0.05,-0.1696,-5.1,-2.131,-0.0032,
0.055,-0.1678,-5.2,2.435,0.002755,
0.06,-0.177,-5.2,-2.707,-0.003288,
0.065,-0.186,-5.2,4.51,-0.000533,
0.07,-0.197,-5.2,-2.46,-0.005422,
0.075,-0.2049,-5.3,2.589,0.001688,
0.08,-0.2532,-5.4,-4.473,-0.016266,
0.085,-0.3435,-5.4,1.377,-0.023911,
0.09,-0.4686,-5.3,-2.894,-0.030933,
0.095,-0.6108,-5.3,-0.999,-0.030933,
0.1,-0.7732,-5.2,-2.67,-0.034755,
0.105,-0.9331,-5.2,3.642,-0.030933,
0.11,-1.0961,-5.2,0.977,-0.032622,
0.115,-1.2505,-5.1,-0.379,-0.029333,
0.12,-1.4037,-5.2,0.791,-0.029333,
0.125,-1.5563,-5.2,-0.441,-0.030399,
0.13,-1.7162,-5.2,-2.335,-0.034755,
0.135,-1.8859,-5.2,1.265,-0.036977,
0.14,-2.058,-5.2,-3.297,-0.038044,
0.145,-2.246,-5.2,4.344,-0.035288,
0.15,-2.4504,-5.2,-5.054,-0.043377,
0.155,-2.6634,-5.2,-0.635,-0.044977,
0.16,-2.8819,-5.2,-3.745,-0.046577,
0.165,-3.1072,-5.2,-0.263,-0.044533,
0.17,-3.3422,-5.2,-4.076,-0.048888,
0.175,-3.5857,-5.2,0.723,-0.046666,
0.18,-3.8323,-5.2,-3.118,-0.052622,
0.185,-4.0715,-5.3,1.033,-0.046666,
0.19,-4.3297,-5.2,-0.215,-0.051555,
0.195,-4.597,-5.2,1.508,-0.051555,
0.2,-4.8778,-5.2,-2.442,-0.055377,
0.205,-5.1671,-5.2,0.096,-0.054222,
0.21,-5.4668,-5.2,1.215,-0.062933,
0.215,-5.7652,-5.2,2.443,-0.058577,
0.22,-6.0759,-5.2,-2.845,-0.064533,
0.225,-6.389,-5.2,4.886,-0.059111,
0.23,-6.7137,-5.2,-1.764,-0.065066,
0.235,-7.039,-5.2,-1.083,-0.062933,
0.24,-7.3723,-5.3,-2.189,-0.067288,
0.245,-7.7159,-5.3,0.084,-0.068888,
0.25,-8.0724,-5.2,0.148,-0.072711,
0.255,-8.4343,-5.3,-0.899,-0.071644,
0.26,-8.8072,-5.3,-0.64,-0.075911,
0.265,-9.1857,-5.2,4.423,-0.074933,
0.27,-9.569,-5.2,-0.215,-0.076533,
0.275,-9.9559,-5.2,3.818,-0.073777,
0.28,-10.3533,-5.3,-1.784,-0.081955,
0.285,-10.7573,-5.2,0.611,-0.0808,
0.29,-11.1699,-5.2,-3.791,-0.085155,
0.295,-11.5825,-5.3,-1.316,-0.083022,
0.3,-12.0104,-5.2,-2.672,-0.090666,
0.305,-12.4333,-5.2,-3.871,-0.085688,
0.31,-12.8685,-5.2,-1.04,-0.092177,
0.315,-13.3043,-5.2,2.41,-0.086755,
0.32,-13.7499,-5.2,-5.506,-0.087911,
0.325,-14.2009,-5.3,2.464,-0.087377,
0.33,-14.6507,-5.3,-2.145,-0.087288,
0.335,-15.1073,-5.3,-0.115,-0.0912,
0.34,-15.5626,-5.3,0.123,-0.0928,
0.345,-16.0204,-5.2,-0.279,-0.0928,
0.35,-16.4806,-5.3,-1.162,-0.093333,
0.355,-16.9444,-5.3,0.92,-0.093777,
0.36,-17.4156,-5.2,0.309,-0.095466,
0.365,-17.8905,-5.3,1.395,-0.095466,
0.37,-18.3635,-5.4,1.585,-0.093333,
0.375,-18.842,-5.3,0.269,-0.094933,
0.38,-19.323,-5.2,1.797,-0.0944,
0.385,-19.8015,-5.3,0.868,-0.094933,
0.39,-20.2849,-5.3,0.285,-0.098222,
0.395,-20.7659,-5.3,-2.522,-0.099288,
0.4,-21.2456,-5.3,-2.928,-0.097155,
0.405,-21.7296,-5.2,0.158,-0.095466,
0.41,-22.2106,-5.2,3.412,-0.095555,
0.415,-22.6915,-5.3,2.507,-0.094933,
0.42,-23.1737,-5.3,1.353,-0.097688,
0.425,-23.6534,-5.3,-1.018,-0.097066,
0.43,-24.1429,-5.3,-3.031,-0.098133,
0.435,-24.6276,-5.4,3.293,-0.096088,
0.44,-25.1195,-5.4,-2.604,-0.100355,
0.445,-25.6108,-5.4,1.501,-0.096533,
0.45,-26.107,-5.4,-1.409,-0.101422,
0.455,-26.6014,-5.4,0.552,-0.097066,
0.46,-27.0976,-5.4,-1.224,-0.098666,
0.465,-27.5951,-5.4,2.396,-0.097688,
0.47,-28.0895,-5.3,1.356,-0.097688,
0.475,-28.5875,-5.4,1.078,-0.099288,
0.48,-29.0917,-5.3,-3.316,-0.100977,
0.485,-29.5983,-5.4,0.158,-0.102044,
0.49,-30.1122,-5.3,0.611,-0.104711,
0.495,-30.6279,-5.3,0.173,-0.100355,
0.5,-31.1528,-5.3,-0.382,-0.104711,
0.505,-31.6869,-5.3,0.53,-0.106399,
0.51,-32.2179,-5.3,4.268,-0.106311,
0.515,-32.7452,-5.3,1.155,-0.102488,
0.52,-33.2726,-5.3,1.366,-0.103644,
0.525,-33.7956,-5.3,0.869,-0.104711,
0.53,-34.3157,-5.3,-1.058,-0.105866,
0.535,-34.8277,-5.3,1.411,-0.104711,
0.54,-35.3472,-5.3,2.129,-0.105333,
0.545,-35.8653,-5.3,2.527,-0.103555,
0.55,-36.386,-5.4,1.156,-0.105244,
0.555,-36.9048,-5.3,-0.723,-0.102577,
0.56,-37.4272,-5.2,0.548,-0.104177,
0.565,-37.9473,-5.3,-0.603,-0.104711,
0.57,-38.4642,-5.3,-0.029,-0.104177,
0.575,-38.9763,-5.3,-0.284,-0.101422,
0.58,-39.4835,-5.3,-0.655,-0.102488,
0.585,-39.9877,-5.2,0.455,-0.095555,
0.59,-40.4918,-5.2,-0.594,-0.101422,
0.595,-40.9868,-5.2,0.58,-0.097688,
0.6,-41.483,-5.3,2.021,-0.098222,
0.605,-41.9786,-5.2,-4.354,-0.101955,
0.61,-42.4681,-5.2,-1.464,-0.095466,
0.615,-42.9527,-5.2,0.825,-0.093777,
0.62,-43.4416,-5.2,4.962,-0.096,
0.625,-43.9208,-5.2,-6.716,-0.096622,
0.63,-44.3974,-5.2,0.974,-0.091644,
0.635,-44.8711,-5.2,0.585,-0.0944,
0.64,-45.3362,-5.2,-2.994,-0.0944,
0.645,-45.8,-5.3,-4.669,-0.093866,
0.65,-46.2566,-5.2,-0.227,-0.090577,
0.655,-46.7058,-5.2,-0.658,-0.089511,
0.66,-47.1526,-5.2,1.008,-0.088977,
0.665,-47.5987,-5.2,-4.869,-0.091111,
0.67,-48.0437,-5.2,2.578,-0.086844,
0.675,-48.4886,-5.3,-2.812,-0.088444,
0.68,-48.9354,-5.2,0.05,-0.087377,
0.685,-49.3816,-5.2,0.006,-0.0912,
0.69,-49.8137,-5.2,4.536,-0.086755,
0.695,-50.2507,-5.3,-1.8,-0.088977,
0.7,-50.678,-5.2,-2.531,-0.087911,
0.705,-51.1003,-5.2,-4.251,-0.085155,
0.71,-51.5184,-5.2,-1.325,-0.086222,
0.715,-51.9298,-5.2,-1.331,-0.083022,
0.72,-52.3406,-5.2,-2.697,-0.084711,
0.725,-52.7306,-5.2,-1.468,-0.078133,
0.73,-53.1249,-5.2,2.303,-0.077066,
0.735,-53.521,-5.2,3.324,-0.078666,
0.74,-53.9104,-5.2,-3.966,-0.076,
0.745,-54.2967,-5.2,-1.82,-0.076977,
0.75,-54.6794,-5.3,0.101,-0.074311,
0.755,-55.0566,-5.2,0.694,-0.074311,
0.76,-55.435,-5.2,5.455,-0.074311,
0.765,-55.7958,-5.3,-2.172,-0.074933,
0.77,-56.1504,-5.3,-0.221,-0.068355,
0.775,-56.4989,-5.3,-0.173,-0.070577,
0.78,-56.8352,-5.2,2.099,-0.063466,
0.785,-57.166,-5.2,-1.293,-0.065066,
0.79,-57.487,-5.3,-1.47,-0.063466,
0.795,-57.802,-5.2,3.055,-0.061333,
0.8,-58.1139,-5.2,1.123,-0.061333,
0.805,-58.4148,-5.2,-0.994,-0.060799,
0.81,-58.7016,-5.2,2.827,-0.056355,
0.815,-58.9873,-5.2,1.366,-0.059111,
0.82,-59.2687,-5.2,0.325,-0.055911,
0.825,-59.5409,-5.2,1.421,-0.054311,
0.83,-59.8033,-5.3,0.995,-0.049866,
0.835,-60.0633,-5.2,-1.012,-0.052088,
0.84,-60.3124,-5.2,1.124,-0.051555,
0.845,-60.5516,-5.3,-1.605,-0.0472,
0.85,-60.7817,-5.3,3.483,-0.040711,
0.855,-61.0137,-5.3,-6.19,-0.049955,
0.86,-61.2297,-5.3,1.028,-0.041244,
0.865,-61.444,-5.3,-3.3,-0.045066,
0.87,-61.6442,-5.2,0.356,-0.035822,
0.875,-61.8419,-5.3,-3.624,-0.040711,
0.88,-62.0262,-5.2,1.479,-0.0336,
0.885,-62.2099,-5.3,-0.22,-0.036888,
0.89,-62.3821,-5.3,0.274,-0.031466,
0.895,-62.5511,-5.3,-2.723,-0.0352,
0.9,-62.708,-5.3,-0.318,-0.026044,
0.905,-62.8612,-5.3,-6.039,-0.030933,
0.91,-63.0095,-5.3,3.465,-0.031466,
0.915,-63.1438,-5.3,-4.357,-0.026044,
0.92,-63.261,-5.5,6.514,-0.020622,
0.925,-63.3794,-5.7,-3.591,-0.024444,
0.93,-63.4722,-6.5,-1.646,-0.012,
0.935,-63.5576,-6.6,1.058,-0.017866,
0.94,-63.6272,-6.4,-1.314,-0.014666,
0.945,-63.6986,-6.5,-1.996,-0.014666,
0.95,-63.7712,-6.6,-0.924,-0.017866,
0.955,-63.8451,-6.6,-4.138,-0.017955,
0.96,-63.9147,-6.8,-0.62,-0.012533,
0.965,-63.9787,-6.6,-1.177,-0.011377,
0.97,-64.0312,-6.6,4.439,-0.008088,
0.975,-64.074,-6.6,-7.084,-0.009777,
0.98,-64.102,-6.6,-0.147,-0.006488,
0.985,-64.1197,-6.6,-3.711,-0.004888,
0.99,-64.1216,-6.5,4.138,0.0032,
0.995,-64.1265,-6.5,-3.379,-0.004355,
1,-64.1313,-6.5,-6.057,-0.0032,
1.005,-64.1692,-6.6,-3.248,-0.011377,
1.01,-64.2931,-6.6,-4.593,-0.033688,
1.015,-64.5018,-6.6,-0.496,-0.0488,
1.02,-64.8039,-6.6,-4.469,-0.066666,
1.025,-65.1988,-6.7,-5.221,-0.083555,
1.03,-65.6828,-6.9,-6.002,-0.104622,
1.035,-66.2303,-7.2,-4.081,-0.113866,
1.04,-66.8254,-7.3,-4.309,-0.122044,
1.045,-67.4449,-7.3,-1.331,-0.123644,
1.05,-68.0797,-8,-2.497,-0.130755,
1.055,-68.7059,-9,0.573,-0.120444,
1.06,-69.3199,-10.5,0.074,-0.120977,
1.065,-69.8918,-11.9,2.662,-0.111199,
1.07,-70.4064,-20.1,4.273,-0.093866,
1.075,-70.7005,-32.7,11.596,-0.034666,
1.08,-70.7152,-33.1,4.297,0.005422,
1.085,-70.6993,-31.4,-1.545,0,
1.09,-70.7115,-32.2,-3.566,-0.0032,
1.095,-70.725,-33.5,0.322,-0.001688,
1.1,-70.7335,-34.1,-2.954,-0.005422,
1.105,-70.7451,-35.4,1.021,-0.000533,
1.11,-70.7817,-37.3,-1.654,-0.007555,
1.115,-70.7903,-37.7,-1.05,-0.001688,
1.12,-70.7854,-37.4,1.745,0.0016,
1.125,-70.7897,-37,4.564,-0.000622,
1.13,-70.7927,-36.6,3.382,-0.000533,
1.135,-70.7884,-36.6,-1.555,0.000533,
1.14,-70.7909,-36.8,1.885,-0.002222,
1.145,-70.7878,-37,0.439,0.002755,
1.15,-70.7909,-36.9,2.508,0.001066,
1.155,-70.7903,-36.7,3.434,0.002666,
1.16,-70.7921,-36.6,-2.354,-0.003288,
1.165,-70.7927,-36.6,-2.266,-0.0016,
1.17,-70.7939,-36.6,0.616,-0.000533,
1.175,-70.7927,-36.6,-0.757,-0.000533,
1.18,-70.7939,-36.6,-0.339,0,
1.185,-70.7933,-36.4,-1.291,0.000533,
1.19,-70.7927,-36.4,1.191,0.0016,
1.195,-70.7939,-36.5,-1.14,-0.000533,
1.2,-70.7939,-36.7,-0.116,-0.001066,
1.205,-70.7921,-36.8,0.527,0.0016,
1.21,-70.7939,-36.7,1.027,0.001688,
1.215,-70.7964,-36.6,1.682,-0.000533,
1.22,-70.7939,-36.5,0.325,0.001688,
1.225,-70.7939,-36.4,0.35,0.000533,
1.23,-70.797,-36.5,-0.381,-0.001066,
1.235,-70.797,-36.5,-2.869,-0.002222,
1.24,-70.7976,-36.7,1.903,-0.0016,
1.245,-70.7976,-36.7,1.38,0.0016,
1.25,-70.797,-36.7,4.823,0.001066,
1.255,-70.7939,-36.7,-1.028,0.002755,
1.26,-70.7982,-36.6,1.192,0.001066,
1.265,-70.7976,-36.7,-2.835,-0.000533,
1.27,-70.7945,-36.7,5.944,0.006044,
1.275,-70.8006,-36.8,-2.132,0.000622,
1.28,-70.7988,-36.8,5.37,0.003822,
1.285,-70.7994,-36.7,1.732,0.002755,
1.29,-70.7988,-36.7,1.452,0.000533,
1.295,-70.8049,-36.6,-2.973,-0.003822,
1.3,-70.8,-36.6,0.833,0.002755,
1.305,-70.7994,-36.7,-3.501,0.001066,
1.31,-70.8043,-36.7,-1.73,-0.004355,
1.315,-70.8013,-36.7,-4.431,-0.001155,
1.32,-70.8025,-36.8,-1.78,-0.001688,
1.325,-70.8025,-36.8,3.229,0.000533,
1.33,-70.8006,-36.9,0.446,0.003822,
1.335,-70.8043,-36.8,1.261,0.000533,
1.34,-70.8055,-36.9,-2.329,-0.004355,
1.345,-70.8049,-36.8,0.769,0.000533,
1.35,-70.8049,-36.8,1.744,0,
1.355,-70.8049,-36.8,0.175,0.000533,
1.36,-70.8049,-36.8,-2.398,0,
1.365,-70.8049,-36.8,-1.186,0,
1.37,-70.8055,-36.8,-1.376,-0.000533,
1.375,-70.8049,-36.9,-0.348,0.000533,
1.38,-70.8055,-36.9,1.076,-0.000533,
1.385,-70.8049,-36.9,-1.004,0.000533,
1.39,-70.8049,-36.9,0.505,0.000533,
1.395,-70.8086,-36.9,0.137,-0.002222,
1.4,-70.8049,-36.9,0.081,0.000533,
1.405,-70.8098,-36.9,0.173,-0.003822,
1.41,-70.8104,-37,-2.534,-0.0016,
1.415,-70.8049,-37,-1.952,0,
1.42,-70.811,-37,2.64,-0.001066,
1.425,-70.8086,-36.9,0.743,0.000533,
1.43,-70.8068,-36.9,-2.071,0,
1.435,-70.8086,-37,-0.673,0.001066,
1.44,-70.8129,-37,-0.144,-0.002755,
1.445,-70.8116,-36.9,-1.731,-0.002133,
1.45,-70.8098,-37,-0.252,-0.001066,
1.455,-70.8122,-37.1,-3.551,-0.005422,
1.46,-70.8092,-37.1,3.758,0.000533,
1.465,-70.8129,-37,-3.637,-0.002755,
1.47,-70.8135,-37,2.228,0.001066,
1.475,-70.8116,-37,-1.195,0.001155,
1.48,-70.8116,-37.1,2.691,0.000533,
1.485,-70.8129,-37,-1.265,-0.001688,
1.49,-70.8122,-37.1,3.723,0.002222,
1.495,-70.8129,-37.1,0.354,0.0016,
1.5,-70.8171,-37.1,4.636,-0.002666,
1.505,-70.8171,-37.1,0.451,-0.001066,
1.51,-70.8153,-37.1,3.45,0.001066,
1.515,-70.8165,-37.2,-1.432,-0.0032,
1.52,-70.8165,-37.2,3.803,-0.001066,
1.525,-70.8129,-37.2,0.766,0.0032,
1.53,-70.8153,-37.2,-0.445,-0.000533,
1.535,-70.8171,-37.2,-0.903,-0.002133,
1.54,-70.8153,-37.2,1.418,0.0016,
1.545,-70.8147,-37.1,0.121,0.002133,
1.55,-70.8177,-37.1,-0.704,-0.000533,
1.555,-70.8171,-37.1,-0.661,-0.000533,
1.56,-70.8171,-37.2,-1.021,0,
1.565,-70.8171,-37.2,-0.692,-0.001066,
1.57,-70.8171,-37.2,0.807,-0.000533,
1.575,-70.8183,-37.2,-1.423,-0.001066,
1.58,-70.819,-37.2,1.266,-0.000622,
1.585,-70.8183,-37.2,1.324,0.000622,
1.59,-70.819,-37.2,3.399,-0.000622,
1.595,-70.819,-37.2,-0.754,-0.001688,
1.6,-70.8104,-37.1,0.738,0.005955,
1.605,-70.797,-36.4,2.751,0.003822,
1.61,-70.772,-34.6,1.852,0.010844,
1.615,-70.7079,-30,-3.359,0.012977,
1.62,-70.6084,-24.4,1.68,0.022755,
1.625,-70.4827,-19.2,0.642,0.028711,
1.63,-70.3301,-14.9,2.043,0.034666,
1.635,-70.1073,-12.9,3.596,0.052622,
1.64,-69.7576,-12.1,6.244,0.082933,
1.645,-69.2565,-11.2,8.385,0.112799,
1.65,-68.6247,-10.4,1.623,0.133511,
1.655,-67.9167,-9.4,-0.447,0.144355,
1.66,-67.1825,-8.5,-0.454,0.145955,
1.665,-66.4763,-7.4,-2.101,0.135644,
1.67,-65.847,-6.6,-5.756,0.117777,
1.675,-65.3288,-6.2,-3.248,0.095022,
1.68,-64.9315,-6.2,-5.548,0.071644,
1.685,-64.6532,-6.4,-8.772,0.046133,
1.69,-64.4823,-6.7,-1.739,0.027111,
1.695,-64.3993,-6.7,-8.341,0.008088,
1.7,-64.3877,-6.5,1.412,0.0032,
1.705,-64.3895,-6.4,-4.938,0.000533,
1.71,-64.3895,-6.4,1.182,0,
1.715,-64.3907,-6.4,0.905,0.002755,
1.72,-64.3883,-6.4,-3.482,0,
1.725,-64.3907,-6.4,-0.273,0.001688,
1.73,-64.3871,-6.4,3.513,0.004888,
1.735,-64.3883,-6.4,-0.769,0.002133,
1.74,-64.3883,-6.4,-1.08,0.003822,
1.745,-64.3907,-6.5,-3.331,-0.002666,
1.75,-64.3871,-6.4,2.77,0.005955,
1.755,-64.3895,-6.4,0.617,0,
1.76,-64.3871,-6.5,1.636,0.005422,
1.765,-64.3907,-6.4,0.181,0.002755,
1.77,-64.3907,-6.4,0.401,-0.0016,
1.775,-64.3889,-6.4,1.268,0.000533,
1.78,-64.3895,-6.4,-2.218,-0.001066,
1.785,-64.3889,-6.4,-0.543,-0.000533,
1.79,-64.3895,-6.4,-3.414,0.001066,
1.795,-64.3883,-6.5,-0.625,0.001066,
1.8,-64.3895,-6.4,2.867,0.0016,
1.805,-64.3883,-6.4,0.061,0.001066,
1.81,-64.3889,-6.4,-1.308,0.000533,
1.815,-64.3901,-6.4,3.591,0.002222,
1.82,-64.3859,-6.5,2.65,0.002133,
1.825,-64.3877,-6.4,3.263,0.0032,
1.83,-64.3883,-6.5,-0.663,0.001066,
1.835,-64.3889,-6.5,-3.081,-0.000533,
1.84,-64.3895,-6.4,2.477,0.001066,
1.845,-64.3859,-6.5,8.226,0.003733,
1.85,-64.3926,-6.5,-2.928,-0.004355,
1.855,-64.3852,-6.4,9.277,0.007644,
1.86,-64.3828,-6.4,-4.792,0.005422,
1.865,-64.3889,-6.4,-3.343,-0.000533,
1.87,-64.3883,-6.4,-11.814,0,
1.875,-64.3846,-6.4,4.183,0.007111,
1.88,-64.3865,-6.5,-0.482,0.001066,
1.885,-64.3877,-6.4,-3.205,0.000533,
1.89,-64.3871,-6.4,-0.488,0.0016,
1.895,-64.3938,-6.5,-3.067,-0.005422,
1.9,-64.3883,-6.5,3.757,0.002133,
1.905,-64.3865,-6.5,-0.77,0.004266,
1.91,-64.3852,-6.4,2.049,0.003822,
1.915,-64.3871,-6.4,2.789,0.002133,
1.92,-64.3871,-6.4,2.974,0.001066,
1.925,-64.3846,-6.4,3.167,0.004888,
1.93,-64.3907,-6.4,-1.634,-0.0032,
1.935,-64.3883,-6.4,4.27,0.001066,
1.94,-64.3883,-6.4,-1.929,-0.001066,
1.945,-64.3883,-6.4,0.617,0,
1.95,-64.3883,-6.5,0.269,-0.001066,
1.955,-64.3883,-6.5,3.185,0.002666,
1.96,-64.3871,-6.4,0.965,0.004888,
1.965,-64.3871,-6.4,3.99,0.002133,
1.97,-64.3913,-6.4,1.185,-0.002133,
1.975,-64.3883,-6.4,-1.644,-0.001066,
1.98,-64.3895,-6.5,2.86,-0.001066,
1.985,-64.3871,-6.4,0.267,0.002666,
1.99,-64.3865,-6.5,1.941,0.002666,
1.995,-64.3889,-6.4,0.09,0.002133,
2,-64.3901,-6.4,-4.642,-0.002133,
2.005,-64.3883,-6.4,2.034,0,
2.01,-64.3871,-6.4,3.426,0.0016,
2.015,-64.3895,-6.5,-3.574,-0.002133,
2.02,-64.3883,-6.5,-0.443,0,
2.025,-64.3883,-6.4,-1.974,0.003822,
2.03,-64.3913,-6.4,-4.452,-0.0032,
2.035,-64.3895,-6.5,0.099,0.0016,
2.04,-64.3895,-6.4,-5.007,-0.001066,
2.045,-64.3828,-6.4,-2.427,0.004355,
2.05,-64.3883,-6.4,-3.511,0,
2.055,-64.3883,-6.4,6.694,0.004888,
2.06,-64.3901,-6.4,0.395,-0.0016,
2.065,-64.3889,-6.4,0.908,0.001066,
2.07,-64.3883,-6.4,2.044,0.000533,
2.075,-64.3883,-6.4,4.233,0,
2.08,-64.3907,-6.4,4.389,0,
2.085,-64.3871,-6.4,-0.391,0.001066,
2.09,-64.3895,-6.5,3.129,0,
2.095,-64.3883,-6.5,0.094,0.002666,
2.1,-64.3895,-6.4,-2.768,-0.001066,
2.105,-64.3859,-6.4,-1.615,0.002133,
2.11,-64.3865,-6.4,1.193,0.001066,
2.115,-64.3901,-6.4,-3.779,-0.002133,
2.12,-64.3871,-6.5,-5.1,-0.002755,
2.125,-64.3871,-6.4,-4.68,0,
2.13,-64.3871,-6.4,0.543,0.002133,
2.135,-64.3852,-6.4,3.598,0.002755,
2.14,-64.3877,-6.4,-0.628,-0.000533,
2.145,-64.3871,-6.4,-1.566,0.001066,
2.15,-64.3895,-6.5,-2.341,-0.0016,
2.155,-64.3883,-6.4,-4.496,-0.000533,
2.16,-64.3877,-6.4,4.292,0.002666,
2.165,-64.3883,-6.4,0.279,-0.001066,
2.17,-64.3883,-6.4,-2.562,0,
2.175,-64.3877,-6.4,2.095,0.001066,
2.18,-64.3877,-6.4,-4.216,0.000533,
2.185,-64.3877,-6.4,2.27,0.002133,
2.19,-64.3865,-6.4,4.75,0.002666,
2.195,-64.3877,-6.4,-3.071,0.000533,
2.2,-64.3938,-6.4,-0.377,-0.003822,
2.205,-64.4048,-6.5,-1.874,-0.001688,
2.21,-64.4554,-6.6,-4.989,-0.015733,
2.215,-64.5952,-6.7,-3.351,-0.033066,
2.22,-64.8491,-6.8,-6.14,-0.058044,
2.225,-65.219,-7,-2.455,-0.078666,
2.23,-65.6883,-7.2,-6.198,-0.098666,
2.235,-66.2444,-7.1,-4.559,-0.116711,
2.24,-66.8505,-7.3,-3.087,-0.124266,
2.245,-67.4816,-7.9,-0.943,-0.125333,
2.25,-68.12,-9,0.512,-0.128088,
2.255,-68.7493,-10.4,2.266,-0.122666,
2.26,-69.3523,-11.9,2.61,-0.115555,
2.265,-69.915,-13.2,-0.001,-0.107911,
2.27,-70.4222,-20.8,8.373,-0.092711,
2.275,-70.7146,-33.8,14.509,-0.032533,
2.28,-70.7317,-34.2,0.641,0.005955,
2.285,-70.7134,-32.3,0.179,-0.000533,
2.29,-70.7256,-33.3,-0.799,-0.001066,
2.295,-70.7445,-34.6,-0.481,-0.003288,
2.3,-70.7524,-35.1,3.053,-0.001066,
2.305,-70.7634,-36.4,-0.174,-0.004355,
2.31,-70.7921,-38.1,0.147,-0.003288,
2.315,-70.8006,-38.5,6.716,0.003822,
2.32,-70.7988,-38.2,0.387,0.002755,
2.325,-70.8049,-37.8,-0.507,0,
2.33,-70.8031,-37.5,-3.352,-0.002222,
2.335,-70.8055,-37.5,-2.852,-0.000533,
2.34,-70.8049,-37.6,-2.542,-0.002666,
2.345,-70.8019,-37.9,0.919,0.002666,
2.35,-70.8049,-37.8,-0.247,0,
2.355,-70.8049,-37.7,-1.596,-0.000533,
2.36,-70.8043,-37.4,-0.248,0.000533,
2.365,-70.8043,-37.4,-3.635,-0.001066,
2.37,-70.8049,-37.4,-0.556,0,
2.375,-70.8049,-37.5,-0.725,-0.0016,
2.38,-70.8049,-37.4,0.69,0,
2.385,-70.8049,-37.2,-0.176,0,
2.39,-70.8061,-37.2,-0.857,-0.001066,
2.395,-70.8086,-37.3,-1.895,-0.003288,
2.4,-70.8043,-37.4,1.525,0.001066,
2.405,-70.8049,-37.5,-2.054,0,
2.41,-70.8055,-37.6,-0.098,-0.000533,
2.415,-70.8049,-37.5,-2.405,0,
2.42,-70.8049,-37.3,0.166,0.000533,
2.425,-70.8086,-37.2,3.221,0.001066,
2.43,-70.8049,-37.2,2.141,0.005422,
2.435,-70.8068,-37.3,0.953,-0.001688,
2.44,-70.811,-37.4,2.558,0.000533,
2.445,-70.8116,-37.4,0.791,-0.0016,
2.45,-70.8068,-37.4,0.533,0.003733,
2.455,-70.811,-37.3,1.324,0.001688,
2.46,-70.8116,-37.3,0.757,0.001155,
2.465,-70.8122,-37.3,-0.547,-0.002133,
2.47,-70.811,-37.4,0.716,0.001066,
2.475,-70.8116,-37.5,3.424,0.001155,
2.48,-70.8098,-37.5,0.892,-0.000533,
2.485,-70.811,-37.5,-1.642,0.000533,
2.49,-70.8153,-37.4,2.369,0.001066,
2.495,-70.8141,-37.3,-0.78,-0.001688,
2.5,-70.8171,-37.4,-2.364,-0.002666,
2.505,-70.8165,-37.4,0.409,-0.002133,
2.51,-70.8147,-37.4,-0.786,-0.000533,
2.515,-70.8171,-37.4,-2.503,-0.003733,
2.52,-70.8129,-37.4,3.201,0.003733,
2.525,-70.8141,-37.5,1.955,0.002666,
2.53,-70.8171,-37.6,0.357,0,
2.535,-70.8159,-37.6,1.501,0.001066,
2.54,-70.8159,-37.6,-0.679,-0.0016,
2.545,-70.8159,-37.6,-0.958,0,
2.55,-70.8165,-37.5,1.551,0.001066,
2.555,-70.8165,-37.5,-0.514,-0.002666,
2.56,-70.8165,-37.5,1.231,0.001066,
2.565,-70.8171,-37.5,0.167,0,
2.57,-70.8171,-37.5,0.015,0,
2.575,-70.8165,-37.5,0.143,0.000533,
2.58,-70.8165,-37.5,0.446,0.001066,
2.585,-70.8165,-37.6,-0.14,0.000533,
2.59,-70.8171,-37.6,-0.534,0,
2.595,-70.819,-37.5,0.706,0,
2.6,-70.8183,-37.5,-0.395,0,
2.605,-70.8177,-37.5,0.39,0.001155,
2.61,-70.8177,-37.5,0.523,0.001155,
2.615,-70.819,-37.5,2.307,0.000533,
2.62,-70.8183,-37.6,1.467,0.000622,
2.625,-70.8177,-37.5,-2.089,-0.0016,
2.63,-70.819,-37.5,-0.596,-0.000622,
2.635,-70.819,-37.5,1.752,0.000533,
2.64,-70.8177,-37.4,0.54,0.001155,
2.645,-70.8183,-37.5,-0.542,0,
2.65,-70.8183,-37.5,-0.326,-0.000533,
2.655,-70.8183,-37.6,-0.079,0,
2.66,-70.8183,-37.5,0.332,0.000622,
2.665,-70.8183,-37.5,-0.947,0.000622,
2.67,-70.8177,-37.5,-1.123,0.000533,
2.675,-70.8177,-37.5,-0.521,0.000533,
2.68,-70.819,-37.5,-1.333,-0.000622,
2.685,-70.8183,-37.5,0.675,0,
2.69,-70.8183,-37.5,-0.265,0,
2.695,-70.8183,-37.5,-0.604,0.000622,
2.7,-70.819,-37.5,-1.339,-0.000622,
2.705,-70.8171,-37.5,-0.721,0.001688,
2.71,-70.8196,-37.5,-1.98,-0.001688,
2.715,-70.819,-37.5,-1.943,-0.001155,
2.72,-70.8183,-37.5,-0.842,0.000622,
2.725,-70.8196,-37.5,-0.422,-0.001155,
2.73,-70.819,-37.5,-1.642,-0.000622,
2.735,-70.8183,-37.5,-0.387,0.001688,
2.74,-70.8196,-37.5,1.268,-0.001155,
2.745,-70.819,-37.4,-1.104,0.001066,
2.75,-70.819,-37.4,-3.166,-0.000622,
